,date_time,date_time_str
211,1662991462.75,2022-09-12 15:04:22.750000
228,1662991467.0,2022-09-12 15:04:27.000000
231,1662991467.75,2022-09-12 15:04:27.750000
235,1662991468.75,2022-09-12 15:04:28.750000
236,1662991469.0,2022-09-12 15:04:29.000000
237,1662991469.25,2022-09-12 15:04:29.250000
238,1662991469.5,2022-09-12 15:04:29.500000
239,1662991469.75,2022-09-12 15:04:29.750000
240,1662991470.0,2022-09-12 15:04:30.000000
241,1662991470.25,2022-09-12 15:04:30.250000
242,1662991470.5,2022-09-12 15:04:30.500000
243,1662991470.75,2022-09-12 15:04:30.750000
244,1662991471.0,2022-09-12 15:04:31.000000
245,1662991471.25,2022-09-12 15:04:31.250000
246,1662991471.5,2022-09-12 15:04:31.500000
247,1662991471.75,2022-09-12 15:04:31.750000
248,1662991472.0,2022-09-12 15:04:32.000000
249,1662991472.25,2022-09-12 15:04:32.250000
250,1662991472.5,2022-09-12 15:04:32.500000
251,1662991472.75,2022-09-12 15:04:32.750000
252,1662991473.0,2022-09-12 15:04:33.000000
253,1662991473.25,2022-09-12 15:04:33.250000
254,1662991473.5,2022-09-12 15:04:33.500000
255,1662991473.75,2022-09-12 15:04:33.750000
256,1662991474.0,2022-09-12 15:04:34.000000
257,1662991474.25,2022-09-12 15:04:34.250000
258,1662991474.5,2022-09-12 15:04:34.500000
259,1662991474.75,2022-09-12 15:04:34.750000
260,1662991475.0,2022-09-12 15:04:35.000000
261,1662991475.25,2022-09-12 15:04:35.250000
262,1662991475.5,2022-09-12 15:04:35.500000
263,1662991475.75,2022-09-12 15:04:35.750000
264,1662991476.0,2022-09-12 15:04:36.000000
265,1662991476.25,2022-09-12 15:04:36.250000
266,1662991476.5,2022-09-12 15:04:36.500000
267,1662991476.75,2022-09-12 15:04:36.750000
268,1662991477.0,2022-09-12 15:04:37.000000
502,1662991535.5,2022-09-12 15:05:35.500000
503,1662991535.75,2022-09-12 15:05:35.750000
506,1662991536.5,2022-09-12 15:05:36.500000
507,1662991536.75,2022-09-12 15:05:36.750000
508,1662991537.0,2022-09-12 15:05:37.000000
509,1662991537.25,2022-09-12 15:05:37.250000
510,1662991537.5,2022-09-12 15:05:37.500000
511,1662991537.75,2022-09-12 15:05:37.750000
515,1662991538.75,2022-09-12 15:05:38.750000
532,1662991543.0,2022-09-12 15:05:43.000000
533,1662991543.25,2022-09-12 15:05:43.250000
534,1662991543.5,2022-09-12 15:05:43.500000
538,1662991544.5,2022-09-12 15:05:44.500000
539,1662991544.75,2022-09-12 15:05:44.750000
540,1662991545.0,2022-09-12 15:05:45.000000
541,1662991545.25,2022-09-12 15:05:45.250000
543,1662991545.75,2022-09-12 15:05:45.750000
566,1662991551.5,2022-09-12 15:05:51.500000
567,1662991551.75,2022-09-12 15:05:51.750000
568,1662991552.0,2022-09-12 15:05:52.000000
569,1662991552.25,2022-09-12 15:05:52.250000
573,1662991553.25,2022-09-12 15:05:53.250000
574,1662991553.5,2022-09-12 15:05:53.500000
575,1662991553.75,2022-09-12 15:05:53.750000
576,1662991554.0,2022-09-12 15:05:54.000000
577,1662991554.25,2022-09-12 15:05:54.250000
579,1662991554.75,2022-09-12 15:05:54.750000
581,1662991555.25,2022-09-12 15:05:55.250000
582,1662991555.5,2022-09-12 15:05:55.500000
585,1662991556.25,2022-09-12 15:05:56.250000
589,1662991557.25,2022-09-12 15:05:57.250000
591,1662991557.75,2022-09-12 15:05:57.750000
597,1662991559.25,2022-09-12 15:05:59.250000
1238,1662991719.5,2022-09-12 15:08:39.500000
1240,1662991720.0,2022-09-12 15:08:40.000000
1241,1662991720.25,2022-09-12 15:08:40.250000
1242,1662991720.5,2022-09-12 15:08:40.500000
1243,1662991720.75,2022-09-12 15:08:40.750000
1244,1662991721.0,2022-09-12 15:08:41.000000
1245,1662991721.25,2022-09-12 15:08:41.250000
1246,1662991721.5,2022-09-12 15:08:41.500000
1247,1662991721.75,2022-09-12 15:08:41.750000
1248,1662991722.0,2022-09-12 15:08:42.000000
1249,1662991722.25,2022-09-12 15:08:42.250000
1250,1662991722.5,2022-09-12 15:08:42.500000
1251,1662991722.75,2022-09-12 15:08:42.750000
1252,1662991723.0,2022-09-12 15:08:43.000000
1254,1662991723.5,2022-09-12 15:08:43.500000
1255,1662991723.75,2022-09-12 15:08:43.750000
1256,1662991724.0,2022-09-12 15:08:44.000000
1257,1662991724.25,2022-09-12 15:08:44.250000
1258,1662991724.5,2022-09-12 15:08:44.500000
1259,1662991724.75,2022-09-12 15:08:44.750000
1260,1662991725.0,2022-09-12 15:08:45.000000
1261,1662991725.25,2022-09-12 15:08:45.250000
1262,1662991725.5,2022-09-12 15:08:45.500000
1263,1662991725.75,2022-09-12 15:08:45.750000
1264,1662991726.0,2022-09-12 15:08:46.000000
1265,1662991726.25,2022-09-12 15:08:46.250000
1266,1662991726.5,2022-09-12 15:08:46.500000
1267,1662991726.75,2022-09-12 15:08:46.750000
1268,1662991727.0,2022-09-12 15:08:47.000000
1269,1662991727.25,2022-09-12 15:08:47.250000
1270,1662991727.5,2022-09-12 15:08:47.500000
1271,1662991727.75,2022-09-12 15:08:47.750000
1272,1662991728.0,2022-09-12 15:08:48.000000
1273,1662991728.25,2022-09-12 15:08:48.250000
1274,1662991728.5,2022-09-12 15:08:48.500000
1275,1662991728.75,2022-09-12 15:08:48.750000
1276,1662991729.0,2022-09-12 15:08:49.000000
1277,1662991729.25,2022-09-12 15:08:49.250000
1278,1662991729.5,2022-09-12 15:08:49.500000
1279,1662991729.75,2022-09-12 15:08:49.750000
1280,1662991730.0,2022-09-12 15:08:50.000000
1281,1662991730.25,2022-09-12 15:08:50.250000
1282,1662991730.5,2022-09-12 15:08:50.500000
1283,1662991730.75,2022-09-12 15:08:50.750000
1284,1662991731.0,2022-09-12 15:08:51.000000
1285,1662991731.25,2022-09-12 15:08:51.250000
1286,1662991731.5,2022-09-12 15:08:51.500000
1287,1662991731.75,2022-09-12 15:08:51.750000
1288,1662991732.0,2022-09-12 15:08:52.000000
1289,1662991732.25,2022-09-12 15:08:52.250000
1290,1662991732.5,2022-09-12 15:08:52.500000
1291,1662991732.75,2022-09-12 15:08:52.750000
1292,1662991733.0,2022-09-12 15:08:53.000000
1293,1662991733.25,2022-09-12 15:08:53.250000
1294,1662991733.5,2022-09-12 15:08:53.500000
1295,1662991733.75,2022-09-12 15:08:53.750000
1296,1662991734.0,2022-09-12 15:08:54.000000
1297,1662991734.25,2022-09-12 15:08:54.250000
1298,1662991734.5,2022-09-12 15:08:54.500000
1299,1662991734.75,2022-09-12 15:08:54.750000
1300,1662991735.0,2022-09-12 15:08:55.000000
1301,1662991735.25,2022-09-12 15:08:55.250000
1302,1662991735.5,2022-09-12 15:08:55.500000
1303,1662991735.75,2022-09-12 15:08:55.750000
1304,1662991736.0,2022-09-12 15:08:56.000000
1305,1662991736.25,2022-09-12 15:08:56.250000
1306,1662991736.5,2022-09-12 15:08:56.500000
1307,1662991736.75,2022-09-12 15:08:56.750000
1308,1662991737.0,2022-09-12 15:08:57.000000
1309,1662991737.25,2022-09-12 15:08:57.250000
1310,1662991737.5,2022-09-12 15:08:57.500000
1311,1662991737.75,2022-09-12 15:08:57.750000
1312,1662991738.0,2022-09-12 15:08:58.000000
1313,1662991738.25,2022-09-12 15:08:58.250000
1314,1662991738.5,2022-09-12 15:08:58.500000
1315,1662991738.75,2022-09-12 15:08:58.750000
1316,1662991739.0,2022-09-12 15:08:59.000000
1317,1662991739.25,2022-09-12 15:08:59.250000
1318,1662991739.5,2022-09-12 15:08:59.500000
1319,1662991739.75,2022-09-12 15:08:59.750000
1320,1662991740.0,2022-09-12 15:09:00.000000
1323,1662991740.75,2022-09-12 15:09:00.750000
1324,1662991741.0,2022-09-12 15:09:01.000000
1325,1662991741.25,2022-09-12 15:09:01.250000
1326,1662991741.5,2022-09-12 15:09:01.500000
1328,1662991742.0,2022-09-12 15:09:02.000000
1331,1662991742.75,2022-09-12 15:09:02.750000
1334,1662991743.5,2022-09-12 15:09:03.500000
1336,1662991744.0,2022-09-12 15:09:04.000000
1340,1662991745.0,2022-09-12 15:09:05.000000
1342,1662991745.5,2022-09-12 15:09:05.500000
1343,1662991745.75,2022-09-12 15:09:05.750000
1344,1662991746.0,2022-09-12 15:09:06.000000
1345,1662991746.25,2022-09-12 15:09:06.250000
1363,1662991750.75,2022-09-12 15:09:10.750000
1364,1662991751.0,2022-09-12 15:09:11.000000
1365,1662991751.25,2022-09-12 15:09:11.250000
1366,1662991751.5,2022-09-12 15:09:11.500000
1367,1662991751.75,2022-09-12 15:09:11.750000
1368,1662991752.0,2022-09-12 15:09:12.000000
1369,1662991752.25,2022-09-12 15:09:12.250000
1396,1662991759.0,2022-09-12 15:09:19.000000
1459,1662991774.75,2022-09-12 15:09:34.750000
1461,1662991775.25,2022-09-12 15:09:35.250000
2097,1662991934.25,2022-09-12 15:12:14.250000
2391,1662992007.75,2022-09-12 15:13:27.750000
2396,1662992009.0,2022-09-12 15:13:29.000000
2397,1662992009.25,2022-09-12 15:13:29.250000
2398,1662992009.5,2022-09-12 15:13:29.500000
2399,1662992009.75,2022-09-12 15:13:29.750000
2402,1662992010.5,2022-09-12 15:13:30.500000
2408,1662992012.0,2022-09-12 15:13:32.000000
2409,1662992012.25,2022-09-12 15:13:32.250000
2410,1662992012.5,2022-09-12 15:13:32.500000
2414,1662992013.5,2022-09-12 15:13:33.500000
2416,1662992014.0,2022-09-12 15:13:34.000000
2419,1662992014.75,2022-09-12 15:13:34.750000
2422,1662992015.5,2022-09-12 15:13:35.500000
2423,1662992015.75,2022-09-12 15:13:35.750000
2425,1662992016.25,2022-09-12 15:13:36.250000
2426,1662992016.5,2022-09-12 15:13:36.500000
2427,1662992016.75,2022-09-12 15:13:36.750000
2428,1662992017.0,2022-09-12 15:13:37.000000
2429,1662992017.25,2022-09-12 15:13:37.250000
2430,1662992017.5,2022-09-12 15:13:37.500000
2431,1662992017.75,2022-09-12 15:13:37.750000
2432,1662992018.0,2022-09-12 15:13:38.000000
2433,1662992018.25,2022-09-12 15:13:38.250000
2434,1662992018.5,2022-09-12 15:13:38.500000
2435,1662992018.75,2022-09-12 15:13:38.750000
2436,1662992019.0,2022-09-12 15:13:39.000000
2437,1662992019.25,2022-09-12 15:13:39.250000
2438,1662992019.5,2022-09-12 15:13:39.500000
2439,1662992019.75,2022-09-12 15:13:39.750000
2440,1662992020.0,2022-09-12 15:13:40.000000
2441,1662992020.25,2022-09-12 15:13:40.250000
2442,1662992020.5,2022-09-12 15:13:40.500000
2443,1662992020.75,2022-09-12 15:13:40.750000
2444,1662992021.0,2022-09-12 15:13:41.000000
2445,1662992021.25,2022-09-12 15:13:41.250000
2446,1662992021.5,2022-09-12 15:13:41.500000
2447,1662992021.75,2022-09-12 15:13:41.750000
2448,1662992022.0,2022-09-12 15:13:42.000000
2449,1662992022.25,2022-09-12 15:13:42.250000
2450,1662992022.5,2022-09-12 15:13:42.500000
2451,1662992022.75,2022-09-12 15:13:42.750000
2452,1662992023.0,2022-09-12 15:13:43.000000
2453,1662992023.25,2022-09-12 15:13:43.250000
2454,1662992023.5,2022-09-12 15:13:43.500000
2455,1662992023.75,2022-09-12 15:13:43.750000
2456,1662992024.0,2022-09-12 15:13:44.000000
2457,1662992024.25,2022-09-12 15:13:44.250000
2458,1662992024.5,2022-09-12 15:13:44.500000
2459,1662992024.75,2022-09-12 15:13:44.750000
2460,1662992025.0,2022-09-12 15:13:45.000000
2461,1662992025.25,2022-09-12 15:13:45.250000
2462,1662992025.5,2022-09-12 15:13:45.500000
2463,1662992025.75,2022-09-12 15:13:45.750000
2464,1662992026.0,2022-09-12 15:13:46.000000
2465,1662992026.25,2022-09-12 15:13:46.250000
2466,1662992026.5,2022-09-12 15:13:46.500000
2467,1662992026.75,2022-09-12 15:13:46.750000
2468,1662992027.0,2022-09-12 15:13:47.000000
2469,1662992027.25,2022-09-12 15:13:47.250000
2470,1662992027.5,2022-09-12 15:13:47.500000
2471,1662992027.75,2022-09-12 15:13:47.750000
2472,1662992028.0,2022-09-12 15:13:48.000000
2473,1662992028.25,2022-09-12 15:13:48.250000
2474,1662992028.5,2022-09-12 15:13:48.500000
2475,1662992028.75,2022-09-12 15:13:48.750000
2476,1662992029.0,2022-09-12 15:13:49.000000
2477,1662992029.25,2022-09-12 15:13:49.250000
2478,1662992029.5,2022-09-12 15:13:49.500000
2479,1662992029.75,2022-09-12 15:13:49.750000
2480,1662992030.0,2022-09-12 15:13:50.000000
2481,1662992030.25,2022-09-12 15:13:50.250000
2482,1662992030.5,2022-09-12 15:13:50.500000
2483,1662992030.75,2022-09-12 15:13:50.750000
2484,1662992031.0,2022-09-12 15:13:51.000000
2485,1662992031.25,2022-09-12 15:13:51.250000
2486,1662992031.5,2022-09-12 15:13:51.500000
2487,1662992031.75,2022-09-12 15:13:51.750000
2488,1662992032.0,2022-09-12 15:13:52.000000
2489,1662992032.25,2022-09-12 15:13:52.250000
2490,1662992032.5,2022-09-12 15:13:52.500000
2491,1662992032.75,2022-09-12 15:13:52.750000
2492,1662992033.0,2022-09-12 15:13:53.000000
2493,1662992033.25,2022-09-12 15:13:53.250000
2494,1662992033.5,2022-09-12 15:13:53.500000
2495,1662992033.75,2022-09-12 15:13:53.750000
2496,1662992034.0,2022-09-12 15:13:54.000000
2497,1662992034.25,2022-09-12 15:13:54.250000
2498,1662992034.5,2022-09-12 15:13:54.500000
2499,1662992034.75,2022-09-12 15:13:54.750000
2500,1662992035.0,2022-09-12 15:13:55.000000
2501,1662992035.25,2022-09-12 15:13:55.250000
2502,1662992035.5,2022-09-12 15:13:55.500000
2503,1662992035.75,2022-09-12 15:13:55.750000
2504,1662992036.0,2022-09-12 15:13:56.000000
2505,1662992036.25,2022-09-12 15:13:56.250000
2506,1662992036.5,2022-09-12 15:13:56.500000
2507,1662992036.75,2022-09-12 15:13:56.750000
2508,1662992037.0,2022-09-12 15:13:57.000000
2509,1662992037.25,2022-09-12 15:13:57.250000
2510,1662992037.5,2022-09-12 15:13:57.500000
2511,1662992037.75,2022-09-12 15:13:57.750000
2512,1662992038.0,2022-09-12 15:13:58.000000
2513,1662992038.25,2022-09-12 15:13:58.250000
2514,1662992038.5,2022-09-12 15:13:58.500000
2515,1662992038.75,2022-09-12 15:13:58.750000
2516,1662992039.0,2022-09-12 15:13:59.000000
2517,1662992039.25,2022-09-12 15:13:59.250000
2518,1662992039.5,2022-09-12 15:13:59.500000
2519,1662992039.75,2022-09-12 15:13:59.750000
2520,1662992040.0,2022-09-12 15:14:00.000000
2521,1662992040.25,2022-09-12 15:14:00.250000
2522,1662992040.5,2022-09-12 15:14:00.500000
2523,1662992040.75,2022-09-12 15:14:00.750000
2524,1662992041.0,2022-09-12 15:14:01.000000
2525,1662992041.25,2022-09-12 15:14:01.250000
2526,1662992041.5,2022-09-12 15:14:01.500000
2527,1662992041.75,2022-09-12 15:14:01.750000
2528,1662992042.0,2022-09-12 15:14:02.000000
2529,1662992042.25,2022-09-12 15:14:02.250000
2530,1662992042.5,2022-09-12 15:14:02.500000
2531,1662992042.75,2022-09-12 15:14:02.750000
2532,1662992043.0,2022-09-12 15:14:03.000000
2533,1662992043.25,2022-09-12 15:14:03.250000
2534,1662992043.5,2022-09-12 15:14:03.500000
2535,1662992043.75,2022-09-12 15:14:03.750000
2536,1662992044.0,2022-09-12 15:14:04.000000
2537,1662992044.25,2022-09-12 15:14:04.250000
2538,1662992044.5,2022-09-12 15:14:04.500000
2539,1662992044.75,2022-09-12 15:14:04.750000
2540,1662992045.0,2022-09-12 15:14:05.000000
2541,1662992045.25,2022-09-12 15:14:05.250000
2542,1662992045.5,2022-09-12 15:14:05.500000
2543,1662992045.75,2022-09-12 15:14:05.750000
2544,1662992046.0,2022-09-12 15:14:06.000000
2545,1662992046.25,2022-09-12 15:14:06.250000
2546,1662992046.5,2022-09-12 15:14:06.500000
2547,1662992046.75,2022-09-12 15:14:06.750000
2548,1662992047.0,2022-09-12 15:14:07.000000
2549,1662992047.25,2022-09-12 15:14:07.250000
2550,1662992047.5,2022-09-12 15:14:07.500000
2551,1662992047.75,2022-09-12 15:14:07.750000
2552,1662992048.0,2022-09-12 15:14:08.000000
2553,1662992048.25,2022-09-12 15:14:08.250000
2554,1662992048.5,2022-09-12 15:14:08.500000
2555,1662992048.75,2022-09-12 15:14:08.750000
2556,1662992049.0,2022-09-12 15:14:09.000000
2557,1662992049.25,2022-09-12 15:14:09.250000
2558,1662992049.5,2022-09-12 15:14:09.500000
2559,1662992049.75,2022-09-12 15:14:09.750000
2560,1662992050.0,2022-09-12 15:14:10.000000
2561,1662992050.25,2022-09-12 15:14:10.250000
2562,1662992050.5,2022-09-12 15:14:10.500000
2563,1662992050.75,2022-09-12 15:14:10.750000
2564,1662992051.0,2022-09-12 15:14:11.000000
2565,1662992051.25,2022-09-12 15:14:11.250000
2566,1662992051.5,2022-09-12 15:14:11.500000
2567,1662992051.75,2022-09-12 15:14:11.750000
2568,1662992052.0,2022-09-12 15:14:12.000000
2569,1662992052.25,2022-09-12 15:14:12.250000
2570,1662992052.5,2022-09-12 15:14:12.500000
2571,1662992052.75,2022-09-12 15:14:12.750000
2572,1662992053.0,2022-09-12 15:14:13.000000
2573,1662992053.25,2022-09-12 15:14:13.250000
2574,1662992053.5,2022-09-12 15:14:13.500000
2575,1662992053.75,2022-09-12 15:14:13.750000
2576,1662992054.0,2022-09-12 15:14:14.000000
2577,1662992054.25,2022-09-12 15:14:14.250000
2578,1662992054.5,2022-09-12 15:14:14.500000
2579,1662992054.75,2022-09-12 15:14:14.750000
2580,1662992055.0,2022-09-12 15:14:15.000000
2581,1662992055.25,2022-09-12 15:14:15.250000
2582,1662992055.5,2022-09-12 15:14:15.500000
2583,1662992055.75,2022-09-12 15:14:15.750000
2584,1662992056.0,2022-09-12 15:14:16.000000
2585,1662992056.25,2022-09-12 15:14:16.250000
2586,1662992056.5,2022-09-12 15:14:16.500000
2587,1662992056.75,2022-09-12 15:14:16.750000
2588,1662992057.0,2022-09-12 15:14:17.000000
2589,1662992057.25,2022-09-12 15:14:17.250000
2590,1662992057.5,2022-09-12 15:14:17.500000
2591,1662992057.75,2022-09-12 15:14:17.750000
2592,1662992058.0,2022-09-12 15:14:18.000000
2593,1662992058.25,2022-09-12 15:14:18.250000
2594,1662992058.5,2022-09-12 15:14:18.500000
2595,1662992058.75,2022-09-12 15:14:18.750000
2596,1662992059.0,2022-09-12 15:14:19.000000
2597,1662992059.25,2022-09-12 15:14:19.250000
2598,1662992059.5,2022-09-12 15:14:19.500000
2599,1662992059.75,2022-09-12 15:14:19.750000
2600,1662992060.0,2022-09-12 15:14:20.000000
2601,1662992060.25,2022-09-12 15:14:20.250000
2602,1662992060.5,2022-09-12 15:14:20.500000
2603,1662992060.75,2022-09-12 15:14:20.750000
2604,1662992061.0,2022-09-12 15:14:21.000000
2605,1662992061.25,2022-09-12 15:14:21.250000
2606,1662992061.5,2022-09-12 15:14:21.500000
2607,1662992061.75,2022-09-12 15:14:21.750000
2608,1662992062.0,2022-09-12 15:14:22.000000
2609,1662992062.25,2022-09-12 15:14:22.250000
2610,1662992062.5,2022-09-12 15:14:22.500000
2611,1662992062.75,2022-09-12 15:14:22.750000
2612,1662992063.0,2022-09-12 15:14:23.000000
2613,1662992063.25,2022-09-12 15:14:23.250000
2614,1662992063.5,2022-09-12 15:14:23.500000
2615,1662992063.75,2022-09-12 15:14:23.750000
2616,1662992064.0,2022-09-12 15:14:24.000000
2617,1662992064.25,2022-09-12 15:14:24.250000
2618,1662992064.5,2022-09-12 15:14:24.500000
2619,1662992064.75,2022-09-12 15:14:24.750000
2620,1662992065.0,2022-09-12 15:14:25.000000
2621,1662992065.25,2022-09-12 15:14:25.250000
2622,1662992065.5,2022-09-12 15:14:25.500000
2623,1662992065.75,2022-09-12 15:14:25.750000
2624,1662992066.0,2022-09-12 15:14:26.000000
2625,1662992066.25,2022-09-12 15:14:26.250000
2626,1662992066.5,2022-09-12 15:14:26.500000
2627,1662992066.75,2022-09-12 15:14:26.750000
2628,1662992067.0,2022-09-12 15:14:27.000000
2629,1662992067.25,2022-09-12 15:14:27.250000
2630,1662992067.5,2022-09-12 15:14:27.500000
2631,1662992067.75,2022-09-12 15:14:27.750000
2632,1662992068.0,2022-09-12 15:14:28.000000
2633,1662992068.25,2022-09-12 15:14:28.250000
2634,1662992068.5,2022-09-12 15:14:28.500000
2635,1662992068.75,2022-09-12 15:14:28.750000
2636,1662992069.0,2022-09-12 15:14:29.000000
2637,1662992069.25,2022-09-12 15:14:29.250000
2638,1662992069.5,2022-09-12 15:14:29.500000
2639,1662992069.75,2022-09-12 15:14:29.750000
2640,1662992070.0,2022-09-12 15:14:30.000000
2641,1662992070.25,2022-09-12 15:14:30.250000
2642,1662992070.5,2022-09-12 15:14:30.500000
2643,1662992070.75,2022-09-12 15:14:30.750000
2644,1662992071.0,2022-09-12 15:14:31.000000
2645,1662992071.25,2022-09-12 15:14:31.250000
2646,1662992071.5,2022-09-12 15:14:31.500000
2647,1662992071.75,2022-09-12 15:14:31.750000
2648,1662992072.0,2022-09-12 15:14:32.000000
2649,1662992072.25,2022-09-12 15:14:32.250000
2650,1662992072.5,2022-09-12 15:14:32.500000
2651,1662992072.75,2022-09-12 15:14:32.750000
2652,1662992073.0,2022-09-12 15:14:33.000000
2653,1662992073.25,2022-09-12 15:14:33.250000
2654,1662992073.5,2022-09-12 15:14:33.500000
2655,1662992073.75,2022-09-12 15:14:33.750000
2656,1662992074.0,2022-09-12 15:14:34.000000
2657,1662992074.25,2022-09-12 15:14:34.250000
2658,1662992074.5,2022-09-12 15:14:34.500000
2659,1662992074.75,2022-09-12 15:14:34.750000
2660,1662992075.0,2022-09-12 15:14:35.000000
2661,1662992075.25,2022-09-12 15:14:35.250000
2662,1662992075.5,2022-09-12 15:14:35.500000
2663,1662992075.75,2022-09-12 15:14:35.750000
2664,1662992076.0,2022-09-12 15:14:36.000000
2665,1662992076.25,2022-09-12 15:14:36.250000
2666,1662992076.5,2022-09-12 15:14:36.500000
2667,1662992076.75,2022-09-12 15:14:36.750000
2668,1662992077.0,2022-09-12 15:14:37.000000
2669,1662992077.25,2022-09-12 15:14:37.250000
2670,1662992077.5,2022-09-12 15:14:37.500000
2671,1662992077.75,2022-09-12 15:14:37.750000
2672,1662992078.0,2022-09-12 15:14:38.000000
2673,1662992078.25,2022-09-12 15:14:38.250000
2674,1662992078.5,2022-09-12 15:14:38.500000
2675,1662992078.75,2022-09-12 15:14:38.750000
2676,1662992079.0,2022-09-12 15:14:39.000000
2677,1662992079.25,2022-09-12 15:14:39.250000
2678,1662992079.5,2022-09-12 15:14:39.500000
2679,1662992079.75,2022-09-12 15:14:39.750000
2680,1662992080.0,2022-09-12 15:14:40.000000
2681,1662992080.25,2022-09-12 15:14:40.250000
2682,1662992080.5,2022-09-12 15:14:40.500000
2683,1662992080.75,2022-09-12 15:14:40.750000
2684,1662992081.0,2022-09-12 15:14:41.000000
2685,1662992081.25,2022-09-12 15:14:41.250000
2686,1662992081.5,2022-09-12 15:14:41.500000
2687,1662992081.75,2022-09-12 15:14:41.750000
2688,1662992082.0,2022-09-12 15:14:42.000000
2689,1662992082.25,2022-09-12 15:14:42.250000
2690,1662992082.5,2022-09-12 15:14:42.500000
2691,1662992082.75,2022-09-12 15:14:42.750000
2692,1662992083.0,2022-09-12 15:14:43.000000
2693,1662992083.25,2022-09-12 15:14:43.250000
2694,1662992083.5,2022-09-12 15:14:43.500000
2695,1662992083.75,2022-09-12 15:14:43.750000
2696,1662992084.0,2022-09-12 15:14:44.000000
2697,1662992084.25,2022-09-12 15:14:44.250000
2698,1662992084.5,2022-09-12 15:14:44.500000
2699,1662992084.75,2022-09-12 15:14:44.750000
2700,1662992085.0,2022-09-12 15:14:45.000000
2701,1662992085.25,2022-09-12 15:14:45.250000
2702,1662992085.5,2022-09-12 15:14:45.500000
2703,1662992085.75,2022-09-12 15:14:45.750000
2704,1662992086.0,2022-09-12 15:14:46.000000
2705,1662992086.25,2022-09-12 15:14:46.250000
2706,1662992086.5,2022-09-12 15:14:46.500000
2707,1662992086.75,2022-09-12 15:14:46.750000
2708,1662992087.0,2022-09-12 15:14:47.000000
2709,1662992087.25,2022-09-12 15:14:47.250000
2710,1662992087.5,2022-09-12 15:14:47.500000
2711,1662992087.75,2022-09-12 15:14:47.750000
2712,1662992088.0,2022-09-12 15:14:48.000000
2713,1662992088.25,2022-09-12 15:14:48.250000
2714,1662992088.5,2022-09-12 15:14:48.500000
2715,1662992088.75,2022-09-12 15:14:48.750000
2716,1662992089.0,2022-09-12 15:14:49.000000
2717,1662992089.25,2022-09-12 15:14:49.250000
2718,1662992089.5,2022-09-12 15:14:49.500000
2719,1662992089.75,2022-09-12 15:14:49.750000
2720,1662992090.0,2022-09-12 15:14:50.000000
2721,1662992090.25,2022-09-12 15:14:50.250000
2722,1662992090.5,2022-09-12 15:14:50.500000
2723,1662992090.75,2022-09-12 15:14:50.750000
2724,1662992091.0,2022-09-12 15:14:51.000000
2725,1662992091.25,2022-09-12 15:14:51.250000
2726,1662992091.5,2022-09-12 15:14:51.500000
2727,1662992091.75,2022-09-12 15:14:51.750000
2728,1662992092.0,2022-09-12 15:14:52.000000
2729,1662992092.25,2022-09-12 15:14:52.250000
2730,1662992092.5,2022-09-12 15:14:52.500000
2731,1662992092.75,2022-09-12 15:14:52.750000
2732,1662992093.0,2022-09-12 15:14:53.000000
2733,1662992093.25,2022-09-12 15:14:53.250000
2734,1662992093.5,2022-09-12 15:14:53.500000
2735,1662992093.75,2022-09-12 15:14:53.750000
2736,1662992094.0,2022-09-12 15:14:54.000000
2737,1662992094.25,2022-09-12 15:14:54.250000
2738,1662992094.5,2022-09-12 15:14:54.500000
2739,1662992094.75,2022-09-12 15:14:54.750000
2740,1662992095.0,2022-09-12 15:14:55.000000
2741,1662992095.25,2022-09-12 15:14:55.250000
2742,1662992095.5,2022-09-12 15:14:55.500000
2743,1662992095.75,2022-09-12 15:14:55.750000
2744,1662992096.0,2022-09-12 15:14:56.000000
2745,1662992096.25,2022-09-12 15:14:56.250000
2746,1662992096.5,2022-09-12 15:14:56.500000
2747,1662992096.75,2022-09-12 15:14:56.750000
2748,1662992097.0,2022-09-12 15:14:57.000000
2749,1662992097.25,2022-09-12 15:14:57.250000
2750,1662992097.5,2022-09-12 15:14:57.500000
2751,1662992097.75,2022-09-12 15:14:57.750000
2752,1662992098.0,2022-09-12 15:14:58.000000
2753,1662992098.25,2022-09-12 15:14:58.250000
2754,1662992098.5,2022-09-12 15:14:58.500000
2755,1662992098.75,2022-09-12 15:14:58.750000
2756,1662992099.0,2022-09-12 15:14:59.000000
2757,1662992099.25,2022-09-12 15:14:59.250000
2758,1662992099.5,2022-09-12 15:14:59.500000
2759,1662992099.75,2022-09-12 15:14:59.750000
2760,1662992100.0,2022-09-12 15:15:00.000000
2761,1662992100.25,2022-09-12 15:15:00.250000
2762,1662992100.5,2022-09-12 15:15:00.500000
2763,1662992100.75,2022-09-12 15:15:00.750000
2764,1662992101.0,2022-09-12 15:15:01.000000
2765,1662992101.25,2022-09-12 15:15:01.250000
2766,1662992101.5,2022-09-12 15:15:01.500000
2767,1662992101.75,2022-09-12 15:15:01.750000
2768,1662992102.0,2022-09-12 15:15:02.000000
2769,1662992102.25,2022-09-12 15:15:02.250000
2770,1662992102.5,2022-09-12 15:15:02.500000
2771,1662992102.75,2022-09-12 15:15:02.750000
2772,1662992103.0,2022-09-12 15:15:03.000000
2773,1662992103.25,2022-09-12 15:15:03.250000
2774,1662992103.5,2022-09-12 15:15:03.500000
2775,1662992103.75,2022-09-12 15:15:03.750000
2776,1662992104.0,2022-09-12 15:15:04.000000
2777,1662992104.25,2022-09-12 15:15:04.250000
2778,1662992104.5,2022-09-12 15:15:04.500000
2779,1662992104.75,2022-09-12 15:15:04.750000
2780,1662992105.0,2022-09-12 15:15:05.000000
2781,1662992105.25,2022-09-12 15:15:05.250000
2782,1662992105.5,2022-09-12 15:15:05.500000
2783,1662992105.75,2022-09-12 15:15:05.750000
2784,1662992106.0,2022-09-12 15:15:06.000000
2785,1662992106.25,2022-09-12 15:15:06.250000
2786,1662992106.5,2022-09-12 15:15:06.500000
2787,1662992106.75,2022-09-12 15:15:06.750000
2788,1662992107.0,2022-09-12 15:15:07.000000
2789,1662992107.25,2022-09-12 15:15:07.250000
2790,1662992107.5,2022-09-12 15:15:07.500000
2791,1662992107.75,2022-09-12 15:15:07.750000
2792,1662992108.0,2022-09-12 15:15:08.000000
2793,1662992108.25,2022-09-12 15:15:08.250000
2794,1662992108.5,2022-09-12 15:15:08.500000
2795,1662992108.75,2022-09-12 15:15:08.750000
2796,1662992109.0,2022-09-12 15:15:09.000000
2797,1662992109.25,2022-09-12 15:15:09.250000
2798,1662992109.5,2022-09-12 15:15:09.500000
2799,1662992109.75,2022-09-12 15:15:09.750000
2800,1662992110.0,2022-09-12 15:15:10.000000
2801,1662992110.25,2022-09-12 15:15:10.250000
2802,1662992110.5,2022-09-12 15:15:10.500000
2803,1662992110.75,2022-09-12 15:15:10.750000
2804,1662992111.0,2022-09-12 15:15:11.000000
2805,1662992111.25,2022-09-12 15:15:11.250000
2806,1662992111.5,2022-09-12 15:15:11.500000
2807,1662992111.75,2022-09-12 15:15:11.750000
2808,1662992112.0,2022-09-12 15:15:12.000000
2809,1662992112.25,2022-09-12 15:15:12.250000
2810,1662992112.5,2022-09-12 15:15:12.500000
2811,1662992112.75,2022-09-12 15:15:12.750000
2812,1662992113.0,2022-09-12 15:15:13.000000
2813,1662992113.25,2022-09-12 15:15:13.250000
2814,1662992113.5,2022-09-12 15:15:13.500000
2815,1662992113.75,2022-09-12 15:15:13.750000
2816,1662992114.0,2022-09-12 15:15:14.000000
2817,1662992114.25,2022-09-12 15:15:14.250000
2818,1662992114.5,2022-09-12 15:15:14.500000
2819,1662992114.75,2022-09-12 15:15:14.750000
2820,1662992115.0,2022-09-12 15:15:15.000000
2821,1662992115.25,2022-09-12 15:15:15.250000
2822,1662992115.5,2022-09-12 15:15:15.500000
2823,1662992115.75,2022-09-12 15:15:15.750000
2824,1662992116.0,2022-09-12 15:15:16.000000
2825,1662992116.25,2022-09-12 15:15:16.250000
2826,1662992116.5,2022-09-12 15:15:16.500000
2827,1662992116.75,2022-09-12 15:15:16.750000
2828,1662992117.0,2022-09-12 15:15:17.000000
2829,1662992117.25,2022-09-12 15:15:17.250000
2830,1662992117.5,2022-09-12 15:15:17.500000
2831,1662992117.75,2022-09-12 15:15:17.750000
2832,1662992118.0,2022-09-12 15:15:18.000000
2833,1662992118.25,2022-09-12 15:15:18.250000
2834,1662992118.5,2022-09-12 15:15:18.500000
2835,1662992118.75,2022-09-12 15:15:18.750000
2836,1662992119.0,2022-09-12 15:15:19.000000
2837,1662992119.25,2022-09-12 15:15:19.250000
2838,1662992119.5,2022-09-12 15:15:19.500000
2839,1662992119.75,2022-09-12 15:15:19.750000
2840,1662992120.0,2022-09-12 15:15:20.000000
2841,1662992120.25,2022-09-12 15:15:20.250000
2842,1662992120.5,2022-09-12 15:15:20.500000
2843,1662992120.75,2022-09-12 15:15:20.750000
2844,1662992121.0,2022-09-12 15:15:21.000000
2845,1662992121.25,2022-09-12 15:15:21.250000
2846,1662992121.5,2022-09-12 15:15:21.500000
2847,1662992121.75,2022-09-12 15:15:21.750000
2848,1662992122.0,2022-09-12 15:15:22.000000
2849,1662992122.25,2022-09-12 15:15:22.250000
2850,1662992122.5,2022-09-12 15:15:22.500000
2851,1662992122.75,2022-09-12 15:15:22.750000
2852,1662992123.0,2022-09-12 15:15:23.000000
2853,1662992123.25,2022-09-12 15:15:23.250000
2854,1662992123.5,2022-09-12 15:15:23.500000
2855,1662992123.75,2022-09-12 15:15:23.750000
2856,1662992124.0,2022-09-12 15:15:24.000000
2857,1662992124.25,2022-09-12 15:15:24.250000
2858,1662992124.5,2022-09-12 15:15:24.500000
2859,1662992124.75,2022-09-12 15:15:24.750000
2860,1662992125.0,2022-09-12 15:15:25.000000
2861,1662992125.25,2022-09-12 15:15:25.250000
2862,1662992125.5,2022-09-12 15:15:25.500000
2863,1662992125.75,2022-09-12 15:15:25.750000
2864,1662992126.0,2022-09-12 15:15:26.000000
2865,1662992126.25,2022-09-12 15:15:26.250000
2866,1662992126.5,2022-09-12 15:15:26.500000
2867,1662992126.75,2022-09-12 15:15:26.750000
2868,1662992127.0,2022-09-12 15:15:27.000000
2869,1662992127.25,2022-09-12 15:15:27.250000
2870,1662992127.5,2022-09-12 15:15:27.500000
2871,1662992127.75,2022-09-12 15:15:27.750000
2872,1662992128.0,2022-09-12 15:15:28.000000
2873,1662992128.25,2022-09-12 15:15:28.250000
2874,1662992128.5,2022-09-12 15:15:28.500000
2875,1662992128.75,2022-09-12 15:15:28.750000
2876,1662992129.0,2022-09-12 15:15:29.000000
2877,1662992129.25,2022-09-12 15:15:29.250000
2878,1662992129.5,2022-09-12 15:15:29.500000
2879,1662992129.75,2022-09-12 15:15:29.750000
2880,1662992130.0,2022-09-12 15:15:30.000000
2881,1662992130.25,2022-09-12 15:15:30.250000
2882,1662992130.5,2022-09-12 15:15:30.500000
2883,1662992130.75,2022-09-12 15:15:30.750000
2884,1662992131.0,2022-09-12 15:15:31.000000
2885,1662992131.25,2022-09-12 15:15:31.250000
2886,1662992131.5,2022-09-12 15:15:31.500000
2887,1662992131.75,2022-09-12 15:15:31.750000
2888,1662992132.0,2022-09-12 15:15:32.000000
2889,1662992132.25,2022-09-12 15:15:32.250000
2890,1662992132.5,2022-09-12 15:15:32.500000
2891,1662992132.75,2022-09-12 15:15:32.750000
2892,1662992133.0,2022-09-12 15:15:33.000000
2893,1662992133.25,2022-09-12 15:15:33.250000
2894,1662992133.5,2022-09-12 15:15:33.500000
2895,1662992133.75,2022-09-12 15:15:33.750000
2896,1662992134.0,2022-09-12 15:15:34.000000
2897,1662992134.25,2022-09-12 15:15:34.250000
2898,1662992134.5,2022-09-12 15:15:34.500000
2899,1662992134.75,2022-09-12 15:15:34.750000
2900,1662992135.0,2022-09-12 15:15:35.000000
2901,1662992135.25,2022-09-12 15:15:35.250000
2902,1662992135.5,2022-09-12 15:15:35.500000
2903,1662992135.75,2022-09-12 15:15:35.750000
2904,1662992136.0,2022-09-12 15:15:36.000000
2905,1662992136.25,2022-09-12 15:15:36.250000
2906,1662992136.5,2022-09-12 15:15:36.500000
2907,1662992136.75,2022-09-12 15:15:36.750000
2908,1662992137.0,2022-09-12 15:15:37.000000
2909,1662992137.25,2022-09-12 15:15:37.250000
2910,1662992137.5,2022-09-12 15:15:37.500000
2911,1662992137.75,2022-09-12 15:15:37.750000
2912,1662992138.0,2022-09-12 15:15:38.000000
2913,1662992138.25,2022-09-12 15:15:38.250000
2914,1662992138.5,2022-09-12 15:15:38.500000
2915,1662992138.75,2022-09-12 15:15:38.750000
2916,1662992139.0,2022-09-12 15:15:39.000000
2917,1662992139.25,2022-09-12 15:15:39.250000
2918,1662992139.5,2022-09-12 15:15:39.500000
2919,1662992139.75,2022-09-12 15:15:39.750000
2920,1662992140.0,2022-09-12 15:15:40.000000
2921,1662992140.25,2022-09-12 15:15:40.250000
2922,1662992140.5,2022-09-12 15:15:40.500000
2923,1662992140.75,2022-09-12 15:15:40.750000
2924,1662992141.0,2022-09-12 15:15:41.000000
2925,1662992141.25,2022-09-12 15:15:41.250000
2926,1662992141.5,2022-09-12 15:15:41.500000
2927,1662992141.75,2022-09-12 15:15:41.750000
2928,1662992142.0,2022-09-12 15:15:42.000000
2929,1662992142.25,2022-09-12 15:15:42.250000
2930,1662992142.5,2022-09-12 15:15:42.500000
2931,1662992142.75,2022-09-12 15:15:42.750000
2932,1662992143.0,2022-09-12 15:15:43.000000
2933,1662992143.25,2022-09-12 15:15:43.250000
2934,1662992143.5,2022-09-12 15:15:43.500000
2935,1662992143.75,2022-09-12 15:15:43.750000
2936,1662992144.0,2022-09-12 15:15:44.000000
2937,1662992144.25,2022-09-12 15:15:44.250000
2938,1662992144.5,2022-09-12 15:15:44.500000
2939,1662992144.75,2022-09-12 15:15:44.750000
2940,1662992145.0,2022-09-12 15:15:45.000000
2941,1662992145.25,2022-09-12 15:15:45.250000
2942,1662992145.5,2022-09-12 15:15:45.500000
2943,1662992145.75,2022-09-12 15:15:45.750000
2944,1662992146.0,2022-09-12 15:15:46.000000
2945,1662992146.25,2022-09-12 15:15:46.250000
2946,1662992146.5,2022-09-12 15:15:46.500000
2947,1662992146.75,2022-09-12 15:15:46.750000
2948,1662992147.0,2022-09-12 15:15:47.000000
2949,1662992147.25,2022-09-12 15:15:47.250000
2950,1662992147.5,2022-09-12 15:15:47.500000
2951,1662992147.75,2022-09-12 15:15:47.750000
2952,1662992148.0,2022-09-12 15:15:48.000000
2953,1662992148.25,2022-09-12 15:15:48.250000
2954,1662992148.5,2022-09-12 15:15:48.500000
2955,1662992148.75,2022-09-12 15:15:48.750000
2956,1662992149.0,2022-09-12 15:15:49.000000
2957,1662992149.25,2022-09-12 15:15:49.250000
2958,1662992149.5,2022-09-12 15:15:49.500000
2959,1662992149.75,2022-09-12 15:15:49.750000
2964,1662992151.0,2022-09-12 15:15:51.000000
2965,1662992151.25,2022-09-12 15:15:51.250000
2966,1662992151.5,2022-09-12 15:15:51.500000
2967,1662992151.75,2022-09-12 15:15:51.750000
2969,1662992152.25,2022-09-12 15:15:52.250000
2970,1662992152.5,2022-09-12 15:15:52.500000
2971,1662992152.75,2022-09-12 15:15:52.750000
2972,1662992153.0,2022-09-12 15:15:53.000000
2973,1662992153.25,2022-09-12 15:15:53.250000
2974,1662992153.5,2022-09-12 15:15:53.500000
2975,1662992153.75,2022-09-12 15:15:53.750000
2976,1662992154.0,2022-09-12 15:15:54.000000
2978,1662992154.5,2022-09-12 15:15:54.500000
2988,1662992157.0,2022-09-12 15:15:57.000000
2997,1662992159.25,2022-09-12 15:15:59.250000
3010,1662992162.5,2022-09-12 15:16:02.500000
3011,1662992162.75,2022-09-12 15:16:02.750000
3013,1662992163.25,2022-09-12 15:16:03.250000
3014,1662992163.5,2022-09-12 15:16:03.500000
3015,1662992163.75,2022-09-12 15:16:03.750000
3016,1662992164.0,2022-09-12 15:16:04.000000
3017,1662992164.25,2022-09-12 15:16:04.250000
3024,1662992166.0,2022-09-12 15:16:06.000000
4600,1662992560.0,2022-09-12 15:22:40.000000
4632,1662992568.0,2022-09-12 15:22:48.000000
4641,1662992570.25,2022-09-12 15:22:50.250000
4650,1662992572.5,2022-09-12 15:22:52.500000
4651,1662992572.75,2022-09-12 15:22:52.750000
4652,1662992573.0,2022-09-12 15:22:53.000000
4653,1662992573.25,2022-09-12 15:22:53.250000
4654,1662992573.5,2022-09-12 15:22:53.500000
4655,1662992573.75,2022-09-12 15:22:53.750000
4656,1662992574.0,2022-09-12 15:22:54.000000
4657,1662992574.25,2022-09-12 15:22:54.250000
4659,1662992574.75,2022-09-12 15:22:54.750000
4660,1662992575.0,2022-09-12 15:22:55.000000
4661,1662992575.25,2022-09-12 15:22:55.250000
4662,1662992575.5,2022-09-12 15:22:55.500000
4663,1662992575.75,2022-09-12 15:22:55.750000
4664,1662992576.0,2022-09-12 15:22:56.000000
4665,1662992576.25,2022-09-12 15:22:56.250000
4666,1662992576.5,2022-09-12 15:22:56.500000
4667,1662992576.75,2022-09-12 15:22:56.750000
4668,1662992577.0,2022-09-12 15:22:57.000000
4669,1662992577.25,2022-09-12 15:22:57.250000
4670,1662992577.5,2022-09-12 15:22:57.500000
4671,1662992577.75,2022-09-12 15:22:57.750000
4672,1662992578.0,2022-09-12 15:22:58.000000
4673,1662992578.25,2022-09-12 15:22:58.250000
4674,1662992578.5,2022-09-12 15:22:58.500000
4675,1662992578.75,2022-09-12 15:22:58.750000
4676,1662992579.0,2022-09-12 15:22:59.000000
4677,1662992579.25,2022-09-12 15:22:59.250000
4678,1662992579.5,2022-09-12 15:22:59.500000
4679,1662992579.75,2022-09-12 15:22:59.750000
4680,1662992580.0,2022-09-12 15:23:00.000000
4681,1662992580.25,2022-09-12 15:23:00.250000
4682,1662992580.5,2022-09-12 15:23:00.500000
4683,1662992580.75,2022-09-12 15:23:00.750000
4684,1662992581.0,2022-09-12 15:23:01.000000
4685,1662992581.25,2022-09-12 15:23:01.250000
4686,1662992581.5,2022-09-12 15:23:01.500000
4687,1662992581.75,2022-09-12 15:23:01.750000
4688,1662992582.0,2022-09-12 15:23:02.000000
4689,1662992582.25,2022-09-12 15:23:02.250000
4690,1662992582.5,2022-09-12 15:23:02.500000
4691,1662992582.75,2022-09-12 15:23:02.750000
4692,1662992583.0,2022-09-12 15:23:03.000000
4693,1662992583.25,2022-09-12 15:23:03.250000
4694,1662992583.5,2022-09-12 15:23:03.500000
4695,1662992583.75,2022-09-12 15:23:03.750000
4696,1662992584.0,2022-09-12 15:23:04.000000
4697,1662992584.25,2022-09-12 15:23:04.250000
4698,1662992584.5,2022-09-12 15:23:04.500000
4699,1662992584.75,2022-09-12 15:23:04.750000
4700,1662992585.0,2022-09-12 15:23:05.000000
4701,1662992585.25,2022-09-12 15:23:05.250000
4702,1662992585.5,2022-09-12 15:23:05.500000
4703,1662992585.75,2022-09-12 15:23:05.750000
4704,1662992586.0,2022-09-12 15:23:06.000000
4705,1662992586.25,2022-09-12 15:23:06.250000
4706,1662992586.5,2022-09-12 15:23:06.500000
4707,1662992586.75,2022-09-12 15:23:06.750000
4708,1662992587.0,2022-09-12 15:23:07.000000
4709,1662992587.25,2022-09-12 15:23:07.250000
4710,1662992587.5,2022-09-12 15:23:07.500000
4711,1662992587.75,2022-09-12 15:23:07.750000
4712,1662992588.0,2022-09-12 15:23:08.000000
4713,1662992588.25,2022-09-12 15:23:08.250000
4714,1662992588.5,2022-09-12 15:23:08.500000
4715,1662992588.75,2022-09-12 15:23:08.750000
4716,1662992589.0,2022-09-12 15:23:09.000000
4717,1662992589.25,2022-09-12 15:23:09.250000
4718,1662992589.5,2022-09-12 15:23:09.500000
4719,1662992589.75,2022-09-12 15:23:09.750000
4720,1662992590.0,2022-09-12 15:23:10.000000
4721,1662992590.25,2022-09-12 15:23:10.250000
4722,1662992590.5,2022-09-12 15:23:10.500000
4723,1662992590.75,2022-09-12 15:23:10.750000
4724,1662992591.0,2022-09-12 15:23:11.000000
4725,1662992591.25,2022-09-12 15:23:11.250000
4726,1662992591.5,2022-09-12 15:23:11.500000
4727,1662992591.75,2022-09-12 15:23:11.750000
4728,1662992592.0,2022-09-12 15:23:12.000000
4729,1662992592.25,2022-09-12 15:23:12.250000
4730,1662992592.5,2022-09-12 15:23:12.500000
4731,1662992592.75,2022-09-12 15:23:12.750000
4732,1662992593.0,2022-09-12 15:23:13.000000
4733,1662992593.25,2022-09-12 15:23:13.250000
4734,1662992593.5,2022-09-12 15:23:13.500000
4735,1662992593.75,2022-09-12 15:23:13.750000
4736,1662992594.0,2022-09-12 15:23:14.000000
4737,1662992594.25,2022-09-12 15:23:14.250000
4738,1662992594.5,2022-09-12 15:23:14.500000
4739,1662992594.75,2022-09-12 15:23:14.750000
4740,1662992595.0,2022-09-12 15:23:15.000000
4741,1662992595.25,2022-09-12 15:23:15.250000
4742,1662992595.5,2022-09-12 15:23:15.500000
4743,1662992595.75,2022-09-12 15:23:15.750000
4744,1662992596.0,2022-09-12 15:23:16.000000
4745,1662992596.25,2022-09-12 15:23:16.250000
4746,1662992596.5,2022-09-12 15:23:16.500000
4747,1662992596.75,2022-09-12 15:23:16.750000
4748,1662992597.0,2022-09-12 15:23:17.000000
4749,1662992597.25,2022-09-12 15:23:17.250000
4750,1662992597.5,2022-09-12 15:23:17.500000
4751,1662992597.75,2022-09-12 15:23:17.750000
4752,1662992598.0,2022-09-12 15:23:18.000000
4753,1662992598.25,2022-09-12 15:23:18.250000
4754,1662992598.5,2022-09-12 15:23:18.500000
4755,1662992598.75,2022-09-12 15:23:18.750000
4756,1662992599.0,2022-09-12 15:23:19.000000
4757,1662992599.25,2022-09-12 15:23:19.250000
4758,1662992599.5,2022-09-12 15:23:19.500000
4759,1662992599.75,2022-09-12 15:23:19.750000
4760,1662992600.0,2022-09-12 15:23:20.000000
4761,1662992600.25,2022-09-12 15:23:20.250000
4762,1662992600.5,2022-09-12 15:23:20.500000
4763,1662992600.75,2022-09-12 15:23:20.750000
4764,1662992601.0,2022-09-12 15:23:21.000000
4765,1662992601.25,2022-09-12 15:23:21.250000
4766,1662992601.5,2022-09-12 15:23:21.500000
4767,1662992601.75,2022-09-12 15:23:21.750000
4768,1662992602.0,2022-09-12 15:23:22.000000
4769,1662992602.25,2022-09-12 15:23:22.250000
4770,1662992602.5,2022-09-12 15:23:22.500000
4771,1662992602.75,2022-09-12 15:23:22.750000
4772,1662992603.0,2022-09-12 15:23:23.000000
4773,1662992603.25,2022-09-12 15:23:23.250000
4774,1662992603.5,2022-09-12 15:23:23.500000
4775,1662992603.75,2022-09-12 15:23:23.750000
4776,1662992604.0,2022-09-12 15:23:24.000000
4777,1662992604.25,2022-09-12 15:23:24.250000
4778,1662992604.5,2022-09-12 15:23:24.500000
4779,1662992604.75,2022-09-12 15:23:24.750000
4780,1662992605.0,2022-09-12 15:23:25.000000
4781,1662992605.25,2022-09-12 15:23:25.250000
4782,1662992605.5,2022-09-12 15:23:25.500000
4783,1662992605.75,2022-09-12 15:23:25.750000
4784,1662992606.0,2022-09-12 15:23:26.000000
4785,1662992606.25,2022-09-12 15:23:26.250000
4786,1662992606.5,2022-09-12 15:23:26.500000
4787,1662992606.75,2022-09-12 15:23:26.750000
4788,1662992607.0,2022-09-12 15:23:27.000000
4789,1662992607.25,2022-09-12 15:23:27.250000
4790,1662992607.5,2022-09-12 15:23:27.500000
4791,1662992607.75,2022-09-12 15:23:27.750000
4792,1662992608.0,2022-09-12 15:23:28.000000
4793,1662992608.25,2022-09-12 15:23:28.250000
4794,1662992608.5,2022-09-12 15:23:28.500000
4795,1662992608.75,2022-09-12 15:23:28.750000
4796,1662992609.0,2022-09-12 15:23:29.000000
4797,1662992609.25,2022-09-12 15:23:29.250000
4798,1662992609.5,2022-09-12 15:23:29.500000
4799,1662992609.75,2022-09-12 15:23:29.750000
4800,1662992610.0,2022-09-12 15:23:30.000000
4801,1662992610.25,2022-09-12 15:23:30.250000
4802,1662992610.5,2022-09-12 15:23:30.500000
4803,1662992610.75,2022-09-12 15:23:30.750000
4804,1662992611.0,2022-09-12 15:23:31.000000
4805,1662992611.25,2022-09-12 15:23:31.250000
4806,1662992611.5,2022-09-12 15:23:31.500000
4807,1662992611.75,2022-09-12 15:23:31.750000
4808,1662992612.0,2022-09-12 15:23:32.000000
4809,1662992612.25,2022-09-12 15:23:32.250000
4810,1662992612.5,2022-09-12 15:23:32.500000
4811,1662992612.75,2022-09-12 15:23:32.750000
4812,1662992613.0,2022-09-12 15:23:33.000000
4813,1662992613.25,2022-09-12 15:23:33.250000
4814,1662992613.5,2022-09-12 15:23:33.500000
4815,1662992613.75,2022-09-12 15:23:33.750000
4816,1662992614.0,2022-09-12 15:23:34.000000
4817,1662992614.25,2022-09-12 15:23:34.250000
4818,1662992614.5,2022-09-12 15:23:34.500000
4819,1662992614.75,2022-09-12 15:23:34.750000
4820,1662992615.0,2022-09-12 15:23:35.000000
4821,1662992615.25,2022-09-12 15:23:35.250000
4822,1662992615.5,2022-09-12 15:23:35.500000
4823,1662992615.75,2022-09-12 15:23:35.750000
4824,1662992616.0,2022-09-12 15:23:36.000000
4825,1662992616.25,2022-09-12 15:23:36.250000
4826,1662992616.5,2022-09-12 15:23:36.500000
4827,1662992616.75,2022-09-12 15:23:36.750000
4828,1662992617.0,2022-09-12 15:23:37.000000
4829,1662992617.25,2022-09-12 15:23:37.250000
4830,1662992617.5,2022-09-12 15:23:37.500000
4831,1662992617.75,2022-09-12 15:23:37.750000
4832,1662992618.0,2022-09-12 15:23:38.000000
4833,1662992618.25,2022-09-12 15:23:38.250000
4834,1662992618.5,2022-09-12 15:23:38.500000
4835,1662992618.75,2022-09-12 15:23:38.750000
4836,1662992619.0,2022-09-12 15:23:39.000000
4837,1662992619.25,2022-09-12 15:23:39.250000
4838,1662992619.5,2022-09-12 15:23:39.500000
4839,1662992619.75,2022-09-12 15:23:39.750000
4840,1662992620.0,2022-09-12 15:23:40.000000
4841,1662992620.25,2022-09-12 15:23:40.250000
4842,1662992620.5,2022-09-12 15:23:40.500000
4843,1662992620.75,2022-09-12 15:23:40.750000
4844,1662992621.0,2022-09-12 15:23:41.000000
4845,1662992621.25,2022-09-12 15:23:41.250000
4846,1662992621.5,2022-09-12 15:23:41.500000
4847,1662992621.75,2022-09-12 15:23:41.750000
4848,1662992622.0,2022-09-12 15:23:42.000000
4849,1662992622.25,2022-09-12 15:23:42.250000
4850,1662992622.5,2022-09-12 15:23:42.500000
4851,1662992622.75,2022-09-12 15:23:42.750000
4852,1662992623.0,2022-09-12 15:23:43.000000
4853,1662992623.25,2022-09-12 15:23:43.250000
4854,1662992623.5,2022-09-12 15:23:43.500000
4855,1662992623.75,2022-09-12 15:23:43.750000
4856,1662992624.0,2022-09-12 15:23:44.000000
4857,1662992624.25,2022-09-12 15:23:44.250000
4858,1662992624.5,2022-09-12 15:23:44.500000
4859,1662992624.75,2022-09-12 15:23:44.750000
4860,1662992625.0,2022-09-12 15:23:45.000000
4861,1662992625.25,2022-09-12 15:23:45.250000
4862,1662992625.5,2022-09-12 15:23:45.500000
4863,1662992625.75,2022-09-12 15:23:45.750000
4864,1662992626.0,2022-09-12 15:23:46.000000
4865,1662992626.25,2022-09-12 15:23:46.250000
4866,1662992626.5,2022-09-12 15:23:46.500000
4867,1662992626.75,2022-09-12 15:23:46.750000
4868,1662992627.0,2022-09-12 15:23:47.000000
4869,1662992627.25,2022-09-12 15:23:47.250000
4870,1662992627.5,2022-09-12 15:23:47.500000
4871,1662992627.75,2022-09-12 15:23:47.750000
4872,1662992628.0,2022-09-12 15:23:48.000000
4873,1662992628.25,2022-09-12 15:23:48.250000
4874,1662992628.5,2022-09-12 15:23:48.500000
4875,1662992628.75,2022-09-12 15:23:48.750000
4876,1662992629.0,2022-09-12 15:23:49.000000
4877,1662992629.25,2022-09-12 15:23:49.250000
4878,1662992629.5,2022-09-12 15:23:49.500000
4879,1662992629.75,2022-09-12 15:23:49.750000
4880,1662992630.0,2022-09-12 15:23:50.000000
4881,1662992630.25,2022-09-12 15:23:50.250000
4882,1662992630.5,2022-09-12 15:23:50.500000
4883,1662992630.75,2022-09-12 15:23:50.750000
4884,1662992631.0,2022-09-12 15:23:51.000000
4885,1662992631.25,2022-09-12 15:23:51.250000
4886,1662992631.5,2022-09-12 15:23:51.500000
4887,1662992631.75,2022-09-12 15:23:51.750000
4888,1662992632.0,2022-09-12 15:23:52.000000
4889,1662992632.25,2022-09-12 15:23:52.250000
4890,1662992632.5,2022-09-12 15:23:52.500000
4891,1662992632.75,2022-09-12 15:23:52.750000
4892,1662992633.0,2022-09-12 15:23:53.000000
4893,1662992633.25,2022-09-12 15:23:53.250000
4894,1662992633.5,2022-09-12 15:23:53.500000
4895,1662992633.75,2022-09-12 15:23:53.750000
4896,1662992634.0,2022-09-12 15:23:54.000000
4897,1662992634.25,2022-09-12 15:23:54.250000
4898,1662992634.5,2022-09-12 15:23:54.500000
4899,1662992634.75,2022-09-12 15:23:54.750000
4900,1662992635.0,2022-09-12 15:23:55.000000
4901,1662992635.25,2022-09-12 15:23:55.250000
4902,1662992635.5,2022-09-12 15:23:55.500000
4903,1662992635.75,2022-09-12 15:23:55.750000
4904,1662992636.0,2022-09-12 15:23:56.000000
4905,1662992636.25,2022-09-12 15:23:56.250000
4906,1662992636.5,2022-09-12 15:23:56.500000
4907,1662992636.75,2022-09-12 15:23:56.750000
4908,1662992637.0,2022-09-12 15:23:57.000000
4909,1662992637.25,2022-09-12 15:23:57.250000
4910,1662992637.5,2022-09-12 15:23:57.500000
4911,1662992637.75,2022-09-12 15:23:57.750000
4912,1662992638.0,2022-09-12 15:23:58.000000
4913,1662992638.25,2022-09-12 15:23:58.250000
4914,1662992638.5,2022-09-12 15:23:58.500000
4915,1662992638.75,2022-09-12 15:23:58.750000
4916,1662992639.0,2022-09-12 15:23:59.000000
4917,1662992639.25,2022-09-12 15:23:59.250000
4918,1662992639.5,2022-09-12 15:23:59.500000
4919,1662992639.75,2022-09-12 15:23:59.750000
4920,1662992640.0,2022-09-12 15:24:00.000000
4921,1662992640.25,2022-09-12 15:24:00.250000
4922,1662992640.5,2022-09-12 15:24:00.500000
4923,1662992640.75,2022-09-12 15:24:00.750000
4924,1662992641.0,2022-09-12 15:24:01.000000
4925,1662992641.25,2022-09-12 15:24:01.250000
4926,1662992641.5,2022-09-12 15:24:01.500000
4927,1662992641.75,2022-09-12 15:24:01.750000
4929,1662992642.25,2022-09-12 15:24:02.250000
4931,1662992642.75,2022-09-12 15:24:02.750000
4933,1662992643.25,2022-09-12 15:24:03.250000
4934,1662992643.5,2022-09-12 15:24:03.500000
4935,1662992643.75,2022-09-12 15:24:03.750000
4937,1662992644.25,2022-09-12 15:24:04.250000
4938,1662992644.5,2022-09-12 15:24:04.500000
4939,1662992644.75,2022-09-12 15:24:04.750000
4940,1662992645.0,2022-09-12 15:24:05.000000
4941,1662992645.25,2022-09-12 15:24:05.250000
4942,1662992645.5,2022-09-12 15:24:05.500000
4943,1662992645.75,2022-09-12 15:24:05.750000
4944,1662992646.0,2022-09-12 15:24:06.000000
4945,1662992646.25,2022-09-12 15:24:06.250000
4946,1662992646.5,2022-09-12 15:24:06.500000
4947,1662992646.75,2022-09-12 15:24:06.750000
4948,1662992647.0,2022-09-12 15:24:07.000000
4949,1662992647.25,2022-09-12 15:24:07.250000
4950,1662992647.5,2022-09-12 15:24:07.500000
4951,1662992647.75,2022-09-12 15:24:07.750000
4952,1662992648.0,2022-09-12 15:24:08.000000
4954,1662992648.5,2022-09-12 15:24:08.500000
4955,1662992648.75,2022-09-12 15:24:08.750000
4973,1662992653.25,2022-09-12 15:24:13.250000
4988,1662992657.0,2022-09-12 15:24:17.000000
5201,1662992710.25,2022-09-12 15:25:10.250000
5207,1662992711.75,2022-09-12 15:25:11.750000
5208,1662992712.0,2022-09-12 15:25:12.000000
5209,1662992712.25,2022-09-12 15:25:12.250000
5212,1662992713.0,2022-09-12 15:25:13.000000
5213,1662992713.25,2022-09-12 15:25:13.250000
5215,1662992713.75,2022-09-12 15:25:13.750000
5216,1662992714.0,2022-09-12 15:25:14.000000
5217,1662992714.25,2022-09-12 15:25:14.250000
5223,1662992715.75,2022-09-12 15:25:15.750000
5224,1662992716.0,2022-09-12 15:25:16.000000
5227,1662992716.75,2022-09-12 15:25:16.750000
5230,1662992717.5,2022-09-12 15:25:17.500000
5231,1662992717.75,2022-09-12 15:25:17.750000
5238,1662992719.5,2022-09-12 15:25:19.500000
5239,1662992719.75,2022-09-12 15:25:19.750000
5250,1662992722.5,2022-09-12 15:25:22.500000
5285,1662992731.25,2022-09-12 15:25:31.250000
5304,1662992736.0,2022-09-12 15:25:36.000000
5308,1662992737.0,2022-09-12 15:25:37.000000
5309,1662992737.25,2022-09-12 15:25:37.250000
5316,1662992739.0,2022-09-12 15:25:39.000000
5435,1662992768.75,2022-09-12 15:26:08.750000
5440,1662992770.0,2022-09-12 15:26:10.000000
5442,1662992770.5,2022-09-12 15:26:10.500000
5444,1662992771.0,2022-09-12 15:26:11.000000
5445,1662992771.25,2022-09-12 15:26:11.250000
5449,1662992772.25,2022-09-12 15:26:12.250000
5450,1662992772.5,2022-09-12 15:26:12.500000
5451,1662992772.75,2022-09-12 15:26:12.750000
5453,1662992773.25,2022-09-12 15:26:13.250000
5455,1662992773.75,2022-09-12 15:26:13.750000
5458,1662992774.5,2022-09-12 15:26:14.500000
5460,1662992775.0,2022-09-12 15:26:15.000000
5463,1662992775.75,2022-09-12 15:26:15.750000
5464,1662992776.0,2022-09-12 15:26:16.000000
5465,1662992776.25,2022-09-12 15:26:16.250000
5466,1662992776.5,2022-09-12 15:26:16.500000
5467,1662992776.75,2022-09-12 15:26:16.750000
5468,1662992777.0,2022-09-12 15:26:17.000000
5469,1662992777.25,2022-09-12 15:26:17.250000
5470,1662992777.5,2022-09-12 15:26:17.500000
5471,1662992777.75,2022-09-12 15:26:17.750000
5472,1662992778.0,2022-09-12 15:26:18.000000
5473,1662992778.25,2022-09-12 15:26:18.250000
5474,1662992778.5,2022-09-12 15:26:18.500000
5475,1662992778.75,2022-09-12 15:26:18.750000
5476,1662992779.0,2022-09-12 15:26:19.000000
5477,1662992779.25,2022-09-12 15:26:19.250000
5478,1662992779.5,2022-09-12 15:26:19.500000
5479,1662992779.75,2022-09-12 15:26:19.750000
5480,1662992780.0,2022-09-12 15:26:20.000000
5481,1662992780.25,2022-09-12 15:26:20.250000
5482,1662992780.5,2022-09-12 15:26:20.500000
5483,1662992780.75,2022-09-12 15:26:20.750000
5484,1662992781.0,2022-09-12 15:26:21.000000
5485,1662992781.25,2022-09-12 15:26:21.250000
5486,1662992781.5,2022-09-12 15:26:21.500000
5487,1662992781.75,2022-09-12 15:26:21.750000
5488,1662992782.0,2022-09-12 15:26:22.000000
5489,1662992782.25,2022-09-12 15:26:22.250000
5490,1662992782.5,2022-09-12 15:26:22.500000
5491,1662992782.75,2022-09-12 15:26:22.750000
5492,1662992783.0,2022-09-12 15:26:23.000000
5493,1662992783.25,2022-09-12 15:26:23.250000
5494,1662992783.5,2022-09-12 15:26:23.500000
5495,1662992783.75,2022-09-12 15:26:23.750000
5496,1662992784.0,2022-09-12 15:26:24.000000
5497,1662992784.25,2022-09-12 15:26:24.250000
5498,1662992784.5,2022-09-12 15:26:24.500000
5499,1662992784.75,2022-09-12 15:26:24.750000
5500,1662992785.0,2022-09-12 15:26:25.000000
5501,1662992785.25,2022-09-12 15:26:25.250000
5502,1662992785.5,2022-09-12 15:26:25.500000
5503,1662992785.75,2022-09-12 15:26:25.750000
5504,1662992786.0,2022-09-12 15:26:26.000000
5505,1662992786.25,2022-09-12 15:26:26.250000
5506,1662992786.5,2022-09-12 15:26:26.500000
5507,1662992786.75,2022-09-12 15:26:26.750000
5508,1662992787.0,2022-09-12 15:26:27.000000
5509,1662992787.25,2022-09-12 15:26:27.250000
5510,1662992787.5,2022-09-12 15:26:27.500000
5511,1662992787.75,2022-09-12 15:26:27.750000
5512,1662992788.0,2022-09-12 15:26:28.000000
5513,1662992788.25,2022-09-12 15:26:28.250000
5514,1662992788.5,2022-09-12 15:26:28.500000
5515,1662992788.75,2022-09-12 15:26:28.750000
5516,1662992789.0,2022-09-12 15:26:29.000000
5517,1662992789.25,2022-09-12 15:26:29.250000
5518,1662992789.5,2022-09-12 15:26:29.500000
5519,1662992789.75,2022-09-12 15:26:29.750000
5520,1662992790.0,2022-09-12 15:26:30.000000
5521,1662992790.25,2022-09-12 15:26:30.250000
5522,1662992790.5,2022-09-12 15:26:30.500000
5523,1662992790.75,2022-09-12 15:26:30.750000
5524,1662992791.0,2022-09-12 15:26:31.000000
5525,1662992791.25,2022-09-12 15:26:31.250000
5526,1662992791.5,2022-09-12 15:26:31.500000
5527,1662992791.75,2022-09-12 15:26:31.750000
5528,1662992792.0,2022-09-12 15:26:32.000000
5529,1662992792.25,2022-09-12 15:26:32.250000
5530,1662992792.5,2022-09-12 15:26:32.500000
5531,1662992792.75,2022-09-12 15:26:32.750000
5532,1662992793.0,2022-09-12 15:26:33.000000
5533,1662992793.25,2022-09-12 15:26:33.250000
5534,1662992793.5,2022-09-12 15:26:33.500000
5535,1662992793.75,2022-09-12 15:26:33.750000
5536,1662992794.0,2022-09-12 15:26:34.000000
5537,1662992794.25,2022-09-12 15:26:34.250000
5538,1662992794.5,2022-09-12 15:26:34.500000
5539,1662992794.75,2022-09-12 15:26:34.750000
5540,1662992795.0,2022-09-12 15:26:35.000000
5541,1662992795.25,2022-09-12 15:26:35.250000
5542,1662992795.5,2022-09-12 15:26:35.500000
5543,1662992795.75,2022-09-12 15:26:35.750000
5544,1662992796.0,2022-09-12 15:26:36.000000
5545,1662992796.25,2022-09-12 15:26:36.250000
5546,1662992796.5,2022-09-12 15:26:36.500000
5547,1662992796.75,2022-09-12 15:26:36.750000
5548,1662992797.0,2022-09-12 15:26:37.000000
5549,1662992797.25,2022-09-12 15:26:37.250000
5550,1662992797.5,2022-09-12 15:26:37.500000
5551,1662992797.75,2022-09-12 15:26:37.750000
5552,1662992798.0,2022-09-12 15:26:38.000000
5553,1662992798.25,2022-09-12 15:26:38.250000
5554,1662992798.5,2022-09-12 15:26:38.500000
5555,1662992798.75,2022-09-12 15:26:38.750000
5556,1662992799.0,2022-09-12 15:26:39.000000
5557,1662992799.25,2022-09-12 15:26:39.250000
5558,1662992799.5,2022-09-12 15:26:39.500000
5559,1662992799.75,2022-09-12 15:26:39.750000
5560,1662992800.0,2022-09-12 15:26:40.000000
5561,1662992800.25,2022-09-12 15:26:40.250000
5562,1662992800.5,2022-09-12 15:26:40.500000
5563,1662992800.75,2022-09-12 15:26:40.750000
5564,1662992801.0,2022-09-12 15:26:41.000000
5565,1662992801.25,2022-09-12 15:26:41.250000
5566,1662992801.5,2022-09-12 15:26:41.500000
5567,1662992801.75,2022-09-12 15:26:41.750000
5568,1662992802.0,2022-09-12 15:26:42.000000
5569,1662992802.25,2022-09-12 15:26:42.250000
5570,1662992802.5,2022-09-12 15:26:42.500000
5571,1662992802.75,2022-09-12 15:26:42.750000
5572,1662992803.0,2022-09-12 15:26:43.000000
5573,1662992803.25,2022-09-12 15:26:43.250000
5574,1662992803.5,2022-09-12 15:26:43.500000
5575,1662992803.75,2022-09-12 15:26:43.750000
5576,1662992804.0,2022-09-12 15:26:44.000000
5577,1662992804.25,2022-09-12 15:26:44.250000
5578,1662992804.5,2022-09-12 15:26:44.500000
5579,1662992804.75,2022-09-12 15:26:44.750000
5580,1662992805.0,2022-09-12 15:26:45.000000
5581,1662992805.25,2022-09-12 15:26:45.250000
5582,1662992805.5,2022-09-12 15:26:45.500000
5583,1662992805.75,2022-09-12 15:26:45.750000
5584,1662992806.0,2022-09-12 15:26:46.000000
5585,1662992806.25,2022-09-12 15:26:46.250000
5586,1662992806.5,2022-09-12 15:26:46.500000
5587,1662992806.75,2022-09-12 15:26:46.750000
5588,1662992807.0,2022-09-12 15:26:47.000000
5589,1662992807.25,2022-09-12 15:26:47.250000
5590,1662992807.5,2022-09-12 15:26:47.500000
5591,1662992807.75,2022-09-12 15:26:47.750000
5592,1662992808.0,2022-09-12 15:26:48.000000
5593,1662992808.25,2022-09-12 15:26:48.250000
5594,1662992808.5,2022-09-12 15:26:48.500000
5595,1662992808.75,2022-09-12 15:26:48.750000
5596,1662992809.0,2022-09-12 15:26:49.000000
5597,1662992809.25,2022-09-12 15:26:49.250000
5598,1662992809.5,2022-09-12 15:26:49.500000
5599,1662992809.75,2022-09-12 15:26:49.750000
5600,1662992810.0,2022-09-12 15:26:50.000000
5601,1662992810.25,2022-09-12 15:26:50.250000
5602,1662992810.5,2022-09-12 15:26:50.500000
5603,1662992810.75,2022-09-12 15:26:50.750000
5604,1662992811.0,2022-09-12 15:26:51.000000
5605,1662992811.25,2022-09-12 15:26:51.250000
5606,1662992811.5,2022-09-12 15:26:51.500000
5607,1662992811.75,2022-09-12 15:26:51.750000
5608,1662992812.0,2022-09-12 15:26:52.000000
5609,1662992812.25,2022-09-12 15:26:52.250000
5610,1662992812.5,2022-09-12 15:26:52.500000
5611,1662992812.75,2022-09-12 15:26:52.750000
5612,1662992813.0,2022-09-12 15:26:53.000000
5613,1662992813.25,2022-09-12 15:26:53.250000
5614,1662992813.5,2022-09-12 15:26:53.500000
5615,1662992813.75,2022-09-12 15:26:53.750000
5616,1662992814.0,2022-09-12 15:26:54.000000
5617,1662992814.25,2022-09-12 15:26:54.250000
5618,1662992814.5,2022-09-12 15:26:54.500000
5619,1662992814.75,2022-09-12 15:26:54.750000
5620,1662992815.0,2022-09-12 15:26:55.000000
5621,1662992815.25,2022-09-12 15:26:55.250000
5622,1662992815.5,2022-09-12 15:26:55.500000
5623,1662992815.75,2022-09-12 15:26:55.750000
5624,1662992816.0,2022-09-12 15:26:56.000000
5625,1662992816.25,2022-09-12 15:26:56.250000
5626,1662992816.5,2022-09-12 15:26:56.500000
5627,1662992816.75,2022-09-12 15:26:56.750000
5628,1662992817.0,2022-09-12 15:26:57.000000
5629,1662992817.25,2022-09-12 15:26:57.250000
5630,1662992817.5,2022-09-12 15:26:57.500000
5631,1662992817.75,2022-09-12 15:26:57.750000
5632,1662992818.0,2022-09-12 15:26:58.000000
5633,1662992818.25,2022-09-12 15:26:58.250000
5634,1662992818.5,2022-09-12 15:26:58.500000
5635,1662992818.75,2022-09-12 15:26:58.750000
5636,1662992819.0,2022-09-12 15:26:59.000000
5637,1662992819.25,2022-09-12 15:26:59.250000
5638,1662992819.5,2022-09-12 15:26:59.500000
5639,1662992819.75,2022-09-12 15:26:59.750000
5640,1662992820.0,2022-09-12 15:27:00.000000
5641,1662992820.25,2022-09-12 15:27:00.250000
5642,1662992820.5,2022-09-12 15:27:00.500000
5643,1662992820.75,2022-09-12 15:27:00.750000
5644,1662992821.0,2022-09-12 15:27:01.000000
5645,1662992821.25,2022-09-12 15:27:01.250000
5646,1662992821.5,2022-09-12 15:27:01.500000
5647,1662992821.75,2022-09-12 15:27:01.750000
5648,1662992822.0,2022-09-12 15:27:02.000000
5649,1662992822.25,2022-09-12 15:27:02.250000
5650,1662992822.5,2022-09-12 15:27:02.500000
5651,1662992822.75,2022-09-12 15:27:02.750000
5652,1662992823.0,2022-09-12 15:27:03.000000
5653,1662992823.25,2022-09-12 15:27:03.250000
5654,1662992823.5,2022-09-12 15:27:03.500000
5655,1662992823.75,2022-09-12 15:27:03.750000
5656,1662992824.0,2022-09-12 15:27:04.000000
5657,1662992824.25,2022-09-12 15:27:04.250000
5658,1662992824.5,2022-09-12 15:27:04.500000
5659,1662992824.75,2022-09-12 15:27:04.750000
5660,1662992825.0,2022-09-12 15:27:05.000000
5661,1662992825.25,2022-09-12 15:27:05.250000
5662,1662992825.5,2022-09-12 15:27:05.500000
5663,1662992825.75,2022-09-12 15:27:05.750000
5664,1662992826.0,2022-09-12 15:27:06.000000
5665,1662992826.25,2022-09-12 15:27:06.250000
5666,1662992826.5,2022-09-12 15:27:06.500000
5667,1662992826.75,2022-09-12 15:27:06.750000
5668,1662992827.0,2022-09-12 15:27:07.000000
5669,1662992827.25,2022-09-12 15:27:07.250000
5670,1662992827.5,2022-09-12 15:27:07.500000
5671,1662992827.75,2022-09-12 15:27:07.750000
5672,1662992828.0,2022-09-12 15:27:08.000000
5673,1662992828.25,2022-09-12 15:27:08.250000
5674,1662992828.5,2022-09-12 15:27:08.500000
5677,1662992829.25,2022-09-12 15:27:09.250000
5678,1662992829.5,2022-09-12 15:27:09.500000
5679,1662992829.75,2022-09-12 15:27:09.750000
5680,1662992830.0,2022-09-12 15:27:10.000000
5948,1662992897.0,2022-09-12 15:28:17.000000
5949,1662992897.25,2022-09-12 15:28:17.250000
5950,1662992897.5,2022-09-12 15:28:17.500000
5951,1662992897.75,2022-09-12 15:28:17.750000
5952,1662992898.0,2022-09-12 15:28:18.000000
5957,1662992899.25,2022-09-12 15:28:19.250000
5958,1662992899.5,2022-09-12 15:28:19.500000
5959,1662992899.75,2022-09-12 15:28:19.750000
5960,1662992900.0,2022-09-12 15:28:20.000000
5961,1662992900.25,2022-09-12 15:28:20.250000
5962,1662992900.5,2022-09-12 15:28:20.500000
5978,1662992904.5,2022-09-12 15:28:24.500000
5979,1662992904.75,2022-09-12 15:28:24.750000
5980,1662992905.0,2022-09-12 15:28:25.000000
5981,1662992905.25,2022-09-12 15:28:25.250000
5982,1662992905.5,2022-09-12 15:28:25.500000
5983,1662992905.75,2022-09-12 15:28:25.750000
5984,1662992906.0,2022-09-12 15:28:26.000000
5985,1662992906.25,2022-09-12 15:28:26.250000
5986,1662992906.5,2022-09-12 15:28:26.500000
5987,1662992906.75,2022-09-12 15:28:26.750000
5988,1662992907.0,2022-09-12 15:28:27.000000
5989,1662992907.25,2022-09-12 15:28:27.250000
5990,1662992907.5,2022-09-12 15:28:27.500000
5991,1662992907.75,2022-09-12 15:28:27.750000
5992,1662992908.0,2022-09-12 15:28:28.000000
5993,1662992908.25,2022-09-12 15:28:28.250000
5994,1662992908.5,2022-09-12 15:28:28.500000
5995,1662992908.75,2022-09-12 15:28:28.750000
5996,1662992909.0,2022-09-12 15:28:29.000000
5997,1662992909.25,2022-09-12 15:28:29.250000
5998,1662992909.5,2022-09-12 15:28:29.500000
5999,1662992909.75,2022-09-12 15:28:29.750000
6000,1662992910.0,2022-09-12 15:28:30.000000
6001,1662992910.25,2022-09-12 15:28:30.250000
6002,1662992910.5,2022-09-12 15:28:30.500000
6003,1662992910.75,2022-09-12 15:28:30.750000
6004,1662992911.0,2022-09-12 15:28:31.000000
6005,1662992911.25,2022-09-12 15:28:31.250000
6006,1662992911.5,2022-09-12 15:28:31.500000
6007,1662992911.75,2022-09-12 15:28:31.750000
6008,1662992912.0,2022-09-12 15:28:32.000000
6009,1662992912.25,2022-09-12 15:28:32.250000
6010,1662992912.5,2022-09-12 15:28:32.500000
6011,1662992912.75,2022-09-12 15:28:32.750000
6012,1662992913.0,2022-09-12 15:28:33.000000
6013,1662992913.25,2022-09-12 15:28:33.250000
6014,1662992913.5,2022-09-12 15:28:33.500000
6015,1662992913.75,2022-09-12 15:28:33.750000
6016,1662992914.0,2022-09-12 15:28:34.000000
6017,1662992914.25,2022-09-12 15:28:34.250000
6018,1662992914.5,2022-09-12 15:28:34.500000
6019,1662992914.75,2022-09-12 15:28:34.750000
6020,1662992915.0,2022-09-12 15:28:35.000000
6021,1662992915.25,2022-09-12 15:28:35.250000
6022,1662992915.5,2022-09-12 15:28:35.500000
6023,1662992915.75,2022-09-12 15:28:35.750000
6024,1662992916.0,2022-09-12 15:28:36.000000
6025,1662992916.25,2022-09-12 15:28:36.250000
6026,1662992916.5,2022-09-12 15:28:36.500000
6027,1662992916.75,2022-09-12 15:28:36.750000
6028,1662992917.0,2022-09-12 15:28:37.000000
6029,1662992917.25,2022-09-12 15:28:37.250000
6030,1662992917.5,2022-09-12 15:28:37.500000
6031,1662992917.75,2022-09-12 15:28:37.750000
6032,1662992918.0,2022-09-12 15:28:38.000000
6033,1662992918.25,2022-09-12 15:28:38.250000
6034,1662992918.5,2022-09-12 15:28:38.500000
6035,1662992918.75,2022-09-12 15:28:38.750000
6036,1662992919.0,2022-09-12 15:28:39.000000
6037,1662992919.25,2022-09-12 15:28:39.250000
6038,1662992919.5,2022-09-12 15:28:39.500000
6039,1662992919.75,2022-09-12 15:28:39.750000
6040,1662992920.0,2022-09-12 15:28:40.000000
6041,1662992920.25,2022-09-12 15:28:40.250000
6042,1662992920.5,2022-09-12 15:28:40.500000
6043,1662992920.75,2022-09-12 15:28:40.750000
6044,1662992921.0,2022-09-12 15:28:41.000000
6045,1662992921.25,2022-09-12 15:28:41.250000
6046,1662992921.5,2022-09-12 15:28:41.500000
6047,1662992921.75,2022-09-12 15:28:41.750000
6048,1662992922.0,2022-09-12 15:28:42.000000
6049,1662992922.25,2022-09-12 15:28:42.250000
6050,1662992922.5,2022-09-12 15:28:42.500000
6051,1662992922.75,2022-09-12 15:28:42.750000
6052,1662992923.0,2022-09-12 15:28:43.000000
6053,1662992923.25,2022-09-12 15:28:43.250000
6054,1662992923.5,2022-09-12 15:28:43.500000
6055,1662992923.75,2022-09-12 15:28:43.750000
6056,1662992924.0,2022-09-12 15:28:44.000000
6057,1662992924.25,2022-09-12 15:28:44.250000
6058,1662992924.5,2022-09-12 15:28:44.500000
6059,1662992924.75,2022-09-12 15:28:44.750000
6060,1662992925.0,2022-09-12 15:28:45.000000
6061,1662992925.25,2022-09-12 15:28:45.250000
6062,1662992925.5,2022-09-12 15:28:45.500000
6063,1662992925.75,2022-09-12 15:28:45.750000
6064,1662992926.0,2022-09-12 15:28:46.000000
6065,1662992926.25,2022-09-12 15:28:46.250000
6066,1662992926.5,2022-09-12 15:28:46.500000
6067,1662992926.75,2022-09-12 15:28:46.750000
6068,1662992927.0,2022-09-12 15:28:47.000000
6069,1662992927.25,2022-09-12 15:28:47.250000
6070,1662992927.5,2022-09-12 15:28:47.500000
6071,1662992927.75,2022-09-12 15:28:47.750000
6072,1662992928.0,2022-09-12 15:28:48.000000
6073,1662992928.25,2022-09-12 15:28:48.250000
6074,1662992928.5,2022-09-12 15:28:48.500000
6075,1662992928.75,2022-09-12 15:28:48.750000
6076,1662992929.0,2022-09-12 15:28:49.000000
6077,1662992929.25,2022-09-12 15:28:49.250000
6078,1662992929.5,2022-09-12 15:28:49.500000
6079,1662992929.75,2022-09-12 15:28:49.750000
6080,1662992930.0,2022-09-12 15:28:50.000000
6081,1662992930.25,2022-09-12 15:28:50.250000
6082,1662992930.5,2022-09-12 15:28:50.500000
6083,1662992930.75,2022-09-12 15:28:50.750000
6084,1662992931.0,2022-09-12 15:28:51.000000
6085,1662992931.25,2022-09-12 15:28:51.250000
6086,1662992931.5,2022-09-12 15:28:51.500000
6087,1662992931.75,2022-09-12 15:28:51.750000
6088,1662992932.0,2022-09-12 15:28:52.000000
6089,1662992932.25,2022-09-12 15:28:52.250000
6090,1662992932.5,2022-09-12 15:28:52.500000
6091,1662992932.75,2022-09-12 15:28:52.750000
6092,1662992933.0,2022-09-12 15:28:53.000000
6093,1662992933.25,2022-09-12 15:28:53.250000
6094,1662992933.5,2022-09-12 15:28:53.500000
6095,1662992933.75,2022-09-12 15:28:53.750000
6096,1662992934.0,2022-09-12 15:28:54.000000
6097,1662992934.25,2022-09-12 15:28:54.250000
6098,1662992934.5,2022-09-12 15:28:54.500000
6099,1662992934.75,2022-09-12 15:28:54.750000
6100,1662992935.0,2022-09-12 15:28:55.000000
6101,1662992935.25,2022-09-12 15:28:55.250000
6102,1662992935.5,2022-09-12 15:28:55.500000
6103,1662992935.75,2022-09-12 15:28:55.750000
6104,1662992936.0,2022-09-12 15:28:56.000000
6105,1662992936.25,2022-09-12 15:28:56.250000
6106,1662992936.5,2022-09-12 15:28:56.500000
6107,1662992936.75,2022-09-12 15:28:56.750000
6108,1662992937.0,2022-09-12 15:28:57.000000
6109,1662992937.25,2022-09-12 15:28:57.250000
6110,1662992937.5,2022-09-12 15:28:57.500000
6111,1662992937.75,2022-09-12 15:28:57.750000
6112,1662992938.0,2022-09-12 15:28:58.000000
6113,1662992938.25,2022-09-12 15:28:58.250000
6114,1662992938.5,2022-09-12 15:28:58.500000
6115,1662992938.75,2022-09-12 15:28:58.750000
6116,1662992939.0,2022-09-12 15:28:59.000000
6117,1662992939.25,2022-09-12 15:28:59.250000
6118,1662992939.5,2022-09-12 15:28:59.500000
6119,1662992939.75,2022-09-12 15:28:59.750000
6120,1662992940.0,2022-09-12 15:29:00.000000
6121,1662992940.25,2022-09-12 15:29:00.250000
6122,1662992940.5,2022-09-12 15:29:00.500000
6123,1662992940.75,2022-09-12 15:29:00.750000
6124,1662992941.0,2022-09-12 15:29:01.000000
6125,1662992941.25,2022-09-12 15:29:01.250000
6126,1662992941.5,2022-09-12 15:29:01.500000
6127,1662992941.75,2022-09-12 15:29:01.750000
6128,1662992942.0,2022-09-12 15:29:02.000000
6129,1662992942.25,2022-09-12 15:29:02.250000
6130,1662992942.5,2022-09-12 15:29:02.500000
6131,1662992942.75,2022-09-12 15:29:02.750000
6132,1662992943.0,2022-09-12 15:29:03.000000
6133,1662992943.25,2022-09-12 15:29:03.250000
6134,1662992943.5,2022-09-12 15:29:03.500000
6135,1662992943.75,2022-09-12 15:29:03.750000
6136,1662992944.0,2022-09-12 15:29:04.000000
6137,1662992944.25,2022-09-12 15:29:04.250000
6138,1662992944.5,2022-09-12 15:29:04.500000
6139,1662992944.75,2022-09-12 15:29:04.750000
6140,1662992945.0,2022-09-12 15:29:05.000000
6141,1662992945.25,2022-09-12 15:29:05.250000
6142,1662992945.5,2022-09-12 15:29:05.500000
6143,1662992945.75,2022-09-12 15:29:05.750000
6144,1662992946.0,2022-09-12 15:29:06.000000
6145,1662992946.25,2022-09-12 15:29:06.250000
6146,1662992946.5,2022-09-12 15:29:06.500000
6147,1662992946.75,2022-09-12 15:29:06.750000
6148,1662992947.0,2022-09-12 15:29:07.000000
6149,1662992947.25,2022-09-12 15:29:07.250000
6150,1662992947.5,2022-09-12 15:29:07.500000
6151,1662992947.75,2022-09-12 15:29:07.750000
6152,1662992948.0,2022-09-12 15:29:08.000000
6153,1662992948.25,2022-09-12 15:29:08.250000
6154,1662992948.5,2022-09-12 15:29:08.500000
6155,1662992948.75,2022-09-12 15:29:08.750000
6156,1662992949.0,2022-09-12 15:29:09.000000
6157,1662992949.25,2022-09-12 15:29:09.250000
6158,1662992949.5,2022-09-12 15:29:09.500000
6159,1662992949.75,2022-09-12 15:29:09.750000
6160,1662992950.0,2022-09-12 15:29:10.000000
6161,1662992950.25,2022-09-12 15:29:10.250000
6162,1662992950.5,2022-09-12 15:29:10.500000
6163,1662992950.75,2022-09-12 15:29:10.750000
6164,1662992951.0,2022-09-12 15:29:11.000000
6165,1662992951.25,2022-09-12 15:29:11.250000
6166,1662992951.5,2022-09-12 15:29:11.500000
6167,1662992951.75,2022-09-12 15:29:11.750000
6168,1662992952.0,2022-09-12 15:29:12.000000
6169,1662992952.25,2022-09-12 15:29:12.250000
6170,1662992952.5,2022-09-12 15:29:12.500000
6171,1662992952.75,2022-09-12 15:29:12.750000
6172,1662992953.0,2022-09-12 15:29:13.000000
6173,1662992953.25,2022-09-12 15:29:13.250000
6174,1662992953.5,2022-09-12 15:29:13.500000
6175,1662992953.75,2022-09-12 15:29:13.750000
6176,1662992954.0,2022-09-12 15:29:14.000000
6177,1662992954.25,2022-09-12 15:29:14.250000
6178,1662992954.5,2022-09-12 15:29:14.500000
6179,1662992954.75,2022-09-12 15:29:14.750000
6180,1662992955.0,2022-09-12 15:29:15.000000
6181,1662992955.25,2022-09-12 15:29:15.250000
6182,1662992955.5,2022-09-12 15:29:15.500000
6183,1662992955.75,2022-09-12 15:29:15.750000
6184,1662992956.0,2022-09-12 15:29:16.000000
6185,1662992956.25,2022-09-12 15:29:16.250000
6186,1662992956.5,2022-09-12 15:29:16.500000
6187,1662992956.75,2022-09-12 15:29:16.750000
6188,1662992957.0,2022-09-12 15:29:17.000000
6189,1662992957.25,2022-09-12 15:29:17.250000
6190,1662992957.5,2022-09-12 15:29:17.500000
6191,1662992957.75,2022-09-12 15:29:17.750000
6192,1662992958.0,2022-09-12 15:29:18.000000
6193,1662992958.25,2022-09-12 15:29:18.250000
6194,1662992958.5,2022-09-12 15:29:18.500000
6195,1662992958.75,2022-09-12 15:29:18.750000
6196,1662992959.0,2022-09-12 15:29:19.000000
6197,1662992959.25,2022-09-12 15:29:19.250000
6198,1662992959.5,2022-09-12 15:29:19.500000
6199,1662992959.75,2022-09-12 15:29:19.750000
6200,1662992960.0,2022-09-12 15:29:20.000000
6201,1662992960.25,2022-09-12 15:29:20.250000
6202,1662992960.5,2022-09-12 15:29:20.500000
6203,1662992960.75,2022-09-12 15:29:20.750000
6204,1662992961.0,2022-09-12 15:29:21.000000
6205,1662992961.25,2022-09-12 15:29:21.250000
6206,1662992961.5,2022-09-12 15:29:21.500000
6207,1662992961.75,2022-09-12 15:29:21.750000
6208,1662992962.0,2022-09-12 15:29:22.000000
6209,1662992962.25,2022-09-12 15:29:22.250000
6210,1662992962.5,2022-09-12 15:29:22.500000
6211,1662992962.75,2022-09-12 15:29:22.750000
6212,1662992963.0,2022-09-12 15:29:23.000000
6213,1662992963.25,2022-09-12 15:29:23.250000
6214,1662992963.5,2022-09-12 15:29:23.500000
6215,1662992963.75,2022-09-12 15:29:23.750000
6216,1662992964.0,2022-09-12 15:29:24.000000
6217,1662992964.25,2022-09-12 15:29:24.250000
6218,1662992964.5,2022-09-12 15:29:24.500000
6219,1662992964.75,2022-09-12 15:29:24.750000
6220,1662992965.0,2022-09-12 15:29:25.000000
6221,1662992965.25,2022-09-12 15:29:25.250000
6222,1662992965.5,2022-09-12 15:29:25.500000
6223,1662992965.75,2022-09-12 15:29:25.750000
6224,1662992966.0,2022-09-12 15:29:26.000000
6225,1662992966.25,2022-09-12 15:29:26.250000
6226,1662992966.5,2022-09-12 15:29:26.500000
6227,1662992966.75,2022-09-12 15:29:26.750000
6228,1662992967.0,2022-09-12 15:29:27.000000
6229,1662992967.25,2022-09-12 15:29:27.250000
6230,1662992967.5,2022-09-12 15:29:27.500000
6231,1662992967.75,2022-09-12 15:29:27.750000
6232,1662992968.0,2022-09-12 15:29:28.000000
6233,1662992968.25,2022-09-12 15:29:28.250000
6234,1662992968.5,2022-09-12 15:29:28.500000
6235,1662992968.75,2022-09-12 15:29:28.750000
6236,1662992969.0,2022-09-12 15:29:29.000000
6237,1662992969.25,2022-09-12 15:29:29.250000
6238,1662992969.5,2022-09-12 15:29:29.500000
6239,1662992969.75,2022-09-12 15:29:29.750000
6240,1662992970.0,2022-09-12 15:29:30.000000
6241,1662992970.25,2022-09-12 15:29:30.250000
6242,1662992970.5,2022-09-12 15:29:30.500000
6243,1662992970.75,2022-09-12 15:29:30.750000
6244,1662992971.0,2022-09-12 15:29:31.000000
6245,1662992971.25,2022-09-12 15:29:31.250000
6246,1662992971.5,2022-09-12 15:29:31.500000
6247,1662992971.75,2022-09-12 15:29:31.750000
6248,1662992972.0,2022-09-12 15:29:32.000000
6249,1662992972.25,2022-09-12 15:29:32.250000
6250,1662992972.5,2022-09-12 15:29:32.500000
6251,1662992972.75,2022-09-12 15:29:32.750000
6252,1662992973.0,2022-09-12 15:29:33.000000
6253,1662992973.25,2022-09-12 15:29:33.250000
6254,1662992973.5,2022-09-12 15:29:33.500000
6255,1662992973.75,2022-09-12 15:29:33.750000
6256,1662992974.0,2022-09-12 15:29:34.000000
6257,1662992974.25,2022-09-12 15:29:34.250000
6258,1662992974.5,2022-09-12 15:29:34.500000
6259,1662992974.75,2022-09-12 15:29:34.750000
6260,1662992975.0,2022-09-12 15:29:35.000000
6261,1662992975.25,2022-09-12 15:29:35.250000
6262,1662992975.5,2022-09-12 15:29:35.500000
6263,1662992975.75,2022-09-12 15:29:35.750000
6264,1662992976.0,2022-09-12 15:29:36.000000
6265,1662992976.25,2022-09-12 15:29:36.250000
6266,1662992976.5,2022-09-12 15:29:36.500000
6267,1662992976.75,2022-09-12 15:29:36.750000
6268,1662992977.0,2022-09-12 15:29:37.000000
6269,1662992977.25,2022-09-12 15:29:37.250000
6270,1662992977.5,2022-09-12 15:29:37.500000
6271,1662992977.75,2022-09-12 15:29:37.750000
6272,1662992978.0,2022-09-12 15:29:38.000000
6273,1662992978.25,2022-09-12 15:29:38.250000
6274,1662992978.5,2022-09-12 15:29:38.500000
6275,1662992978.75,2022-09-12 15:29:38.750000
6276,1662992979.0,2022-09-12 15:29:39.000000
6277,1662992979.25,2022-09-12 15:29:39.250000
6278,1662992979.5,2022-09-12 15:29:39.500000
6279,1662992979.75,2022-09-12 15:29:39.750000
6280,1662992980.0,2022-09-12 15:29:40.000000
6281,1662992980.25,2022-09-12 15:29:40.250000
6282,1662992980.5,2022-09-12 15:29:40.500000
6283,1662992980.75,2022-09-12 15:29:40.750000
6284,1662992981.0,2022-09-12 15:29:41.000000
6285,1662992981.25,2022-09-12 15:29:41.250000
6286,1662992981.5,2022-09-12 15:29:41.500000
6287,1662992981.75,2022-09-12 15:29:41.750000
6288,1662992982.0,2022-09-12 15:29:42.000000
6289,1662992982.25,2022-09-12 15:29:42.250000
6290,1662992982.5,2022-09-12 15:29:42.500000
6291,1662992982.75,2022-09-12 15:29:42.750000
6292,1662992983.0,2022-09-12 15:29:43.000000
6293,1662992983.25,2022-09-12 15:29:43.250000
6294,1662992983.5,2022-09-12 15:29:43.500000
6295,1662992983.75,2022-09-12 15:29:43.750000
6296,1662992984.0,2022-09-12 15:29:44.000000
6298,1662992984.5,2022-09-12 15:29:44.500000
6299,1662992984.75,2022-09-12 15:29:44.750000
6300,1662992985.0,2022-09-12 15:29:45.000000
6301,1662992985.25,2022-09-12 15:29:45.250000
6302,1662992985.5,2022-09-12 15:29:45.500000
6303,1662992985.75,2022-09-12 15:29:45.750000
6304,1662992986.0,2022-09-12 15:29:46.000000
6305,1662992986.25,2022-09-12 15:29:46.250000
6306,1662992986.5,2022-09-12 15:29:46.500000
6307,1662992986.75,2022-09-12 15:29:46.750000
6308,1662992987.0,2022-09-12 15:29:47.000000
6309,1662992987.25,2022-09-12 15:29:47.250000
6311,1662992987.75,2022-09-12 15:29:47.750000
6312,1662992988.0,2022-09-12 15:29:48.000000
6317,1662992989.25,2022-09-12 15:29:49.250000
6321,1662992990.25,2022-09-12 15:29:50.250000
6322,1662992990.5,2022-09-12 15:29:50.500000
6323,1662992990.75,2022-09-12 15:29:50.750000
6324,1662992991.0,2022-09-12 15:29:51.000000
6328,1662992992.0,2022-09-12 15:29:52.000000
6340,1662992995.0,2022-09-12 15:29:55.000000
6344,1662992996.0,2022-09-12 15:29:56.000000
6345,1662992996.25,2022-09-12 15:29:56.250000
6348,1662992997.0,2022-09-12 15:29:57.000000
6354,1662992998.5,2022-09-12 15:29:58.500000
6356,1662992999.0,2022-09-12 15:29:59.000000
6358,1662992999.5,2022-09-12 15:29:59.500000
6367,1662993001.75,2022-09-12 15:30:01.750000
6369,1662993002.25,2022-09-12 15:30:02.250000
6371,1662993002.75,2022-09-12 15:30:02.750000
6372,1662993003.0,2022-09-12 15:30:03.000000
6373,1662993003.25,2022-09-12 15:30:03.250000
6378,1662993004.5,2022-09-12 15:30:04.500000
6380,1662993005.0,2022-09-12 15:30:05.000000
6381,1662993005.25,2022-09-12 15:30:05.250000
6383,1662993005.75,2022-09-12 15:30:05.750000
6384,1662993006.0,2022-09-12 15:30:06.000000
6385,1662993006.25,2022-09-12 15:30:06.250000
6386,1662993006.5,2022-09-12 15:30:06.500000
6387,1662993006.75,2022-09-12 15:30:06.750000
6388,1662993007.0,2022-09-12 15:30:07.000000
6389,1662993007.25,2022-09-12 15:30:07.250000
6390,1662993007.5,2022-09-12 15:30:07.500000
6391,1662993007.75,2022-09-12 15:30:07.750000
6392,1662993008.0,2022-09-12 15:30:08.000000
6393,1662993008.25,2022-09-12 15:30:08.250000
6394,1662993008.5,2022-09-12 15:30:08.500000
6395,1662993008.75,2022-09-12 15:30:08.750000
6396,1662993009.0,2022-09-12 15:30:09.000000
6397,1662993009.25,2022-09-12 15:30:09.250000
6398,1662993009.5,2022-09-12 15:30:09.500000
6400,1662993010.0,2022-09-12 15:30:10.000000
6401,1662993010.25,2022-09-12 15:30:10.250000
6402,1662993010.5,2022-09-12 15:30:10.500000
6403,1662993010.75,2022-09-12 15:30:10.750000
6404,1662993011.0,2022-09-12 15:30:11.000000
6405,1662993011.25,2022-09-12 15:30:11.250000
6406,1662993011.5,2022-09-12 15:30:11.500000
6407,1662993011.75,2022-09-12 15:30:11.750000
6408,1662993012.0,2022-09-12 15:30:12.000000
6409,1662993012.25,2022-09-12 15:30:12.250000
6410,1662993012.5,2022-09-12 15:30:12.500000
6411,1662993012.75,2022-09-12 15:30:12.750000
6412,1662993013.0,2022-09-12 15:30:13.000000
6413,1662993013.25,2022-09-12 15:30:13.250000
6414,1662993013.5,2022-09-12 15:30:13.500000
6415,1662993013.75,2022-09-12 15:30:13.750000
6416,1662993014.0,2022-09-12 15:30:14.000000
6417,1662993014.25,2022-09-12 15:30:14.250000
6418,1662993014.5,2022-09-12 15:30:14.500000
6419,1662993014.75,2022-09-12 15:30:14.750000
6420,1662993015.0,2022-09-12 15:30:15.000000
6421,1662993015.25,2022-09-12 15:30:15.250000
6422,1662993015.5,2022-09-12 15:30:15.500000
6423,1662993015.75,2022-09-12 15:30:15.750000
6424,1662993016.0,2022-09-12 15:30:16.000000
6425,1662993016.25,2022-09-12 15:30:16.250000
6426,1662993016.5,2022-09-12 15:30:16.500000
6427,1662993016.75,2022-09-12 15:30:16.750000
6428,1662993017.0,2022-09-12 15:30:17.000000
6429,1662993017.25,2022-09-12 15:30:17.250000
6430,1662993017.5,2022-09-12 15:30:17.500000
6431,1662993017.75,2022-09-12 15:30:17.750000
6432,1662993018.0,2022-09-12 15:30:18.000000
6433,1662993018.25,2022-09-12 15:30:18.250000
6434,1662993018.5,2022-09-12 15:30:18.500000
6435,1662993018.75,2022-09-12 15:30:18.750000
6436,1662993019.0,2022-09-12 15:30:19.000000
6437,1662993019.25,2022-09-12 15:30:19.250000
6438,1662993019.5,2022-09-12 15:30:19.500000
6439,1662993019.75,2022-09-12 15:30:19.750000
6440,1662993020.0,2022-09-12 15:30:20.000000
6441,1662993020.25,2022-09-12 15:30:20.250000
6442,1662993020.5,2022-09-12 15:30:20.500000
6443,1662993020.75,2022-09-12 15:30:20.750000
6444,1662993021.0,2022-09-12 15:30:21.000000
6445,1662993021.25,2022-09-12 15:30:21.250000
6446,1662993021.5,2022-09-12 15:30:21.500000
6447,1662993021.75,2022-09-12 15:30:21.750000
6448,1662993022.0,2022-09-12 15:30:22.000000
6449,1662993022.25,2022-09-12 15:30:22.250000
6450,1662993022.5,2022-09-12 15:30:22.500000
6451,1662993022.75,2022-09-12 15:30:22.750000
6452,1662993023.0,2022-09-12 15:30:23.000000
6453,1662993023.25,2022-09-12 15:30:23.250000
6454,1662993023.5,2022-09-12 15:30:23.500000
6455,1662993023.75,2022-09-12 15:30:23.750000
6456,1662993024.0,2022-09-12 15:30:24.000000
6457,1662993024.25,2022-09-12 15:30:24.250000
6458,1662993024.5,2022-09-12 15:30:24.500000
6459,1662993024.75,2022-09-12 15:30:24.750000
6460,1662993025.0,2022-09-12 15:30:25.000000
6461,1662993025.25,2022-09-12 15:30:25.250000
6462,1662993025.5,2022-09-12 15:30:25.500000
6463,1662993025.75,2022-09-12 15:30:25.750000
6464,1662993026.0,2022-09-12 15:30:26.000000
6465,1662993026.25,2022-09-12 15:30:26.250000
6466,1662993026.5,2022-09-12 15:30:26.500000
6467,1662993026.75,2022-09-12 15:30:26.750000
6468,1662993027.0,2022-09-12 15:30:27.000000
6469,1662993027.25,2022-09-12 15:30:27.250000
6470,1662993027.5,2022-09-12 15:30:27.500000
6471,1662993027.75,2022-09-12 15:30:27.750000
6472,1662993028.0,2022-09-12 15:30:28.000000
6473,1662993028.25,2022-09-12 15:30:28.250000
6474,1662993028.5,2022-09-12 15:30:28.500000
6475,1662993028.75,2022-09-12 15:30:28.750000
6476,1662993029.0,2022-09-12 15:30:29.000000
6477,1662993029.25,2022-09-12 15:30:29.250000
6478,1662993029.5,2022-09-12 15:30:29.500000
6479,1662993029.75,2022-09-12 15:30:29.750000
6480,1662993030.0,2022-09-12 15:30:30.000000
6481,1662993030.25,2022-09-12 15:30:30.250000
6482,1662993030.5,2022-09-12 15:30:30.500000
6483,1662993030.75,2022-09-12 15:30:30.750000
6484,1662993031.0,2022-09-12 15:30:31.000000
6485,1662993031.25,2022-09-12 15:30:31.250000
6486,1662993031.5,2022-09-12 15:30:31.500000
6487,1662993031.75,2022-09-12 15:30:31.750000
6488,1662993032.0,2022-09-12 15:30:32.000000
6489,1662993032.25,2022-09-12 15:30:32.250000
6490,1662993032.5,2022-09-12 15:30:32.500000
6491,1662993032.75,2022-09-12 15:30:32.750000
6492,1662993033.0,2022-09-12 15:30:33.000000
6493,1662993033.25,2022-09-12 15:30:33.250000
6494,1662993033.5,2022-09-12 15:30:33.500000
6495,1662993033.75,2022-09-12 15:30:33.750000
6496,1662993034.0,2022-09-12 15:30:34.000000
6497,1662993034.25,2022-09-12 15:30:34.250000
6498,1662993034.5,2022-09-12 15:30:34.500000
6499,1662993034.75,2022-09-12 15:30:34.750000
6500,1662993035.0,2022-09-12 15:30:35.000000
6501,1662993035.25,2022-09-12 15:30:35.250000
6502,1662993035.5,2022-09-12 15:30:35.500000
6503,1662993035.75,2022-09-12 15:30:35.750000
6504,1662993036.0,2022-09-12 15:30:36.000000
6505,1662993036.25,2022-09-12 15:30:36.250000
6506,1662993036.5,2022-09-12 15:30:36.500000
6507,1662993036.75,2022-09-12 15:30:36.750000
6508,1662993037.0,2022-09-12 15:30:37.000000
6509,1662993037.25,2022-09-12 15:30:37.250000
6510,1662993037.5,2022-09-12 15:30:37.500000
6511,1662993037.75,2022-09-12 15:30:37.750000
6512,1662993038.0,2022-09-12 15:30:38.000000
6513,1662993038.25,2022-09-12 15:30:38.250000
6514,1662993038.5,2022-09-12 15:30:38.500000
6515,1662993038.75,2022-09-12 15:30:38.750000
6516,1662993039.0,2022-09-12 15:30:39.000000
6517,1662993039.25,2022-09-12 15:30:39.250000
6518,1662993039.5,2022-09-12 15:30:39.500000
6519,1662993039.75,2022-09-12 15:30:39.750000
6520,1662993040.0,2022-09-12 15:30:40.000000
6521,1662993040.25,2022-09-12 15:30:40.250000
6522,1662993040.5,2022-09-12 15:30:40.500000
6523,1662993040.75,2022-09-12 15:30:40.750000
6524,1662993041.0,2022-09-12 15:30:41.000000
6525,1662993041.25,2022-09-12 15:30:41.250000
6526,1662993041.5,2022-09-12 15:30:41.500000
6527,1662993041.75,2022-09-12 15:30:41.750000
6528,1662993042.0,2022-09-12 15:30:42.000000
6529,1662993042.25,2022-09-12 15:30:42.250000
6530,1662993042.5,2022-09-12 15:30:42.500000
6531,1662993042.75,2022-09-12 15:30:42.750000
6532,1662993043.0,2022-09-12 15:30:43.000000
6533,1662993043.25,2022-09-12 15:30:43.250000
6534,1662993043.5,2022-09-12 15:30:43.500000
6535,1662993043.75,2022-09-12 15:30:43.750000
6536,1662993044.0,2022-09-12 15:30:44.000000
6537,1662993044.25,2022-09-12 15:30:44.250000
6538,1662993044.5,2022-09-12 15:30:44.500000
6539,1662993044.75,2022-09-12 15:30:44.750000
6540,1662993045.0,2022-09-12 15:30:45.000000
6541,1662993045.25,2022-09-12 15:30:45.250000
6542,1662993045.5,2022-09-12 15:30:45.500000
6543,1662993045.75,2022-09-12 15:30:45.750000
6544,1662993046.0,2022-09-12 15:30:46.000000
6545,1662993046.25,2022-09-12 15:30:46.250000
6546,1662993046.5,2022-09-12 15:30:46.500000
6547,1662993046.75,2022-09-12 15:30:46.750000
6548,1662993047.0,2022-09-12 15:30:47.000000
6549,1662993047.25,2022-09-12 15:30:47.250000
6550,1662993047.5,2022-09-12 15:30:47.500000
6551,1662993047.75,2022-09-12 15:30:47.750000
6552,1662993048.0,2022-09-12 15:30:48.000000
6553,1662993048.25,2022-09-12 15:30:48.250000
6554,1662993048.5,2022-09-12 15:30:48.500000
6555,1662993048.75,2022-09-12 15:30:48.750000
6556,1662993049.0,2022-09-12 15:30:49.000000
6557,1662993049.25,2022-09-12 15:30:49.250000
6558,1662993049.5,2022-09-12 15:30:49.500000
6559,1662993049.75,2022-09-12 15:30:49.750000
6560,1662993050.0,2022-09-12 15:30:50.000000
6561,1662993050.25,2022-09-12 15:30:50.250000
6562,1662993050.5,2022-09-12 15:30:50.500000
6563,1662993050.75,2022-09-12 15:30:50.750000
6564,1662993051.0,2022-09-12 15:30:51.000000
6565,1662993051.25,2022-09-12 15:30:51.250000
6566,1662993051.5,2022-09-12 15:30:51.500000
6567,1662993051.75,2022-09-12 15:30:51.750000
6568,1662993052.0,2022-09-12 15:30:52.000000
6569,1662993052.25,2022-09-12 15:30:52.250000
6570,1662993052.5,2022-09-12 15:30:52.500000
6571,1662993052.75,2022-09-12 15:30:52.750000
6572,1662993053.0,2022-09-12 15:30:53.000000
6573,1662993053.25,2022-09-12 15:30:53.250000
6574,1662993053.5,2022-09-12 15:30:53.500000
6575,1662993053.75,2022-09-12 15:30:53.750000
6576,1662993054.0,2022-09-12 15:30:54.000000
6577,1662993054.25,2022-09-12 15:30:54.250000
6578,1662993054.5,2022-09-12 15:30:54.500000
6579,1662993054.75,2022-09-12 15:30:54.750000
6580,1662993055.0,2022-09-12 15:30:55.000000
6581,1662993055.25,2022-09-12 15:30:55.250000
6582,1662993055.5,2022-09-12 15:30:55.500000
6583,1662993055.75,2022-09-12 15:30:55.750000
6584,1662993056.0,2022-09-12 15:30:56.000000
6585,1662993056.25,2022-09-12 15:30:56.250000
6586,1662993056.5,2022-09-12 15:30:56.500000
6587,1662993056.75,2022-09-12 15:30:56.750000
6588,1662993057.0,2022-09-12 15:30:57.000000
6589,1662993057.25,2022-09-12 15:30:57.250000
6590,1662993057.5,2022-09-12 15:30:57.500000
6591,1662993057.75,2022-09-12 15:30:57.750000
6592,1662993058.0,2022-09-12 15:30:58.000000
6593,1662993058.25,2022-09-12 15:30:58.250000
6594,1662993058.5,2022-09-12 15:30:58.500000
6595,1662993058.75,2022-09-12 15:30:58.750000
6596,1662993059.0,2022-09-12 15:30:59.000000
6597,1662993059.25,2022-09-12 15:30:59.250000
6598,1662993059.5,2022-09-12 15:30:59.500000
6599,1662993059.75,2022-09-12 15:30:59.750000
6600,1662993060.0,2022-09-12 15:31:00.000000
6601,1662993060.25,2022-09-12 15:31:00.250000
6602,1662993060.5,2022-09-12 15:31:00.500000
6603,1662993060.75,2022-09-12 15:31:00.750000
6604,1662993061.0,2022-09-12 15:31:01.000000
6605,1662993061.25,2022-09-12 15:31:01.250000
6606,1662993061.5,2022-09-12 15:31:01.500000
6607,1662993061.75,2022-09-12 15:31:01.750000
6608,1662993062.0,2022-09-12 15:31:02.000000
6609,1662993062.25,2022-09-12 15:31:02.250000
6610,1662993062.5,2022-09-12 15:31:02.500000
6611,1662993062.75,2022-09-12 15:31:02.750000
6612,1662993063.0,2022-09-12 15:31:03.000000
6613,1662993063.25,2022-09-12 15:31:03.250000
6614,1662993063.5,2022-09-12 15:31:03.500000
6615,1662993063.75,2022-09-12 15:31:03.750000
6616,1662993064.0,2022-09-12 15:31:04.000000
6617,1662993064.25,2022-09-12 15:31:04.250000
6618,1662993064.5,2022-09-12 15:31:04.500000
6619,1662993064.75,2022-09-12 15:31:04.750000
6620,1662993065.0,2022-09-12 15:31:05.000000
6621,1662993065.25,2022-09-12 15:31:05.250000
6622,1662993065.5,2022-09-12 15:31:05.500000
6623,1662993065.75,2022-09-12 15:31:05.750000
6624,1662993066.0,2022-09-12 15:31:06.000000
6625,1662993066.25,2022-09-12 15:31:06.250000
6626,1662993066.5,2022-09-12 15:31:06.500000
6627,1662993066.75,2022-09-12 15:31:06.750000
6628,1662993067.0,2022-09-12 15:31:07.000000
6629,1662993067.25,2022-09-12 15:31:07.250000
6630,1662993067.5,2022-09-12 15:31:07.500000
6631,1662993067.75,2022-09-12 15:31:07.750000
6632,1662993068.0,2022-09-12 15:31:08.000000
6633,1662993068.25,2022-09-12 15:31:08.250000
6634,1662993068.5,2022-09-12 15:31:08.500000
6635,1662993068.75,2022-09-12 15:31:08.750000
6636,1662993069.0,2022-09-12 15:31:09.000000
6637,1662993069.25,2022-09-12 15:31:09.250000
6638,1662993069.5,2022-09-12 15:31:09.500000
6639,1662993069.75,2022-09-12 15:31:09.750000
6640,1662993070.0,2022-09-12 15:31:10.000000
6641,1662993070.25,2022-09-12 15:31:10.250000
6642,1662993070.5,2022-09-12 15:31:10.500000
6643,1662993070.75,2022-09-12 15:31:10.750000
6644,1662993071.0,2022-09-12 15:31:11.000000
6645,1662993071.25,2022-09-12 15:31:11.250000
6646,1662993071.5,2022-09-12 15:31:11.500000
6647,1662993071.75,2022-09-12 15:31:11.750000
6648,1662993072.0,2022-09-12 15:31:12.000000
6649,1662993072.25,2022-09-12 15:31:12.250000
6650,1662993072.5,2022-09-12 15:31:12.500000
6651,1662993072.75,2022-09-12 15:31:12.750000
6652,1662993073.0,2022-09-12 15:31:13.000000
6653,1662993073.25,2022-09-12 15:31:13.250000
6654,1662993073.5,2022-09-12 15:31:13.500000
6655,1662993073.75,2022-09-12 15:31:13.750000
6656,1662993074.0,2022-09-12 15:31:14.000000
6657,1662993074.25,2022-09-12 15:31:14.250000
6658,1662993074.5,2022-09-12 15:31:14.500000
6659,1662993074.75,2022-09-12 15:31:14.750000
6660,1662993075.0,2022-09-12 15:31:15.000000
6661,1662993075.25,2022-09-12 15:31:15.250000
6662,1662993075.5,2022-09-12 15:31:15.500000
6663,1662993075.75,2022-09-12 15:31:15.750000
6664,1662993076.0,2022-09-12 15:31:16.000000
6665,1662993076.25,2022-09-12 15:31:16.250000
6666,1662993076.5,2022-09-12 15:31:16.500000
6667,1662993076.75,2022-09-12 15:31:16.750000
6668,1662993077.0,2022-09-12 15:31:17.000000
6669,1662993077.25,2022-09-12 15:31:17.250000
6670,1662993077.5,2022-09-12 15:31:17.500000
6671,1662993077.75,2022-09-12 15:31:17.750000
6672,1662993078.0,2022-09-12 15:31:18.000000
6673,1662993078.25,2022-09-12 15:31:18.250000
6674,1662993078.5,2022-09-12 15:31:18.500000
6675,1662993078.75,2022-09-12 15:31:18.750000
6676,1662993079.0,2022-09-12 15:31:19.000000
6677,1662993079.25,2022-09-12 15:31:19.250000
6678,1662993079.5,2022-09-12 15:31:19.500000
6679,1662993079.75,2022-09-12 15:31:19.750000
6680,1662993080.0,2022-09-12 15:31:20.000000
6681,1662993080.25,2022-09-12 15:31:20.250000
6682,1662993080.5,2022-09-12 15:31:20.500000
6683,1662993080.75,2022-09-12 15:31:20.750000
6684,1662993081.0,2022-09-12 15:31:21.000000
6685,1662993081.25,2022-09-12 15:31:21.250000
6686,1662993081.5,2022-09-12 15:31:21.500000
6687,1662993081.75,2022-09-12 15:31:21.750000
6688,1662993082.0,2022-09-12 15:31:22.000000
6689,1662993082.25,2022-09-12 15:31:22.250000
6690,1662993082.5,2022-09-12 15:31:22.500000
6691,1662993082.75,2022-09-12 15:31:22.750000
6692,1662993083.0,2022-09-12 15:31:23.000000
6693,1662993083.25,2022-09-12 15:31:23.250000
6694,1662993083.5,2022-09-12 15:31:23.500000
6695,1662993083.75,2022-09-12 15:31:23.750000
6696,1662993084.0,2022-09-12 15:31:24.000000
6697,1662993084.25,2022-09-12 15:31:24.250000
6698,1662993084.5,2022-09-12 15:31:24.500000
6699,1662993084.75,2022-09-12 15:31:24.750000
6700,1662993085.0,2022-09-12 15:31:25.000000
6701,1662993085.25,2022-09-12 15:31:25.250000
6702,1662993085.5,2022-09-12 15:31:25.500000
6703,1662993085.75,2022-09-12 15:31:25.750000
6704,1662993086.0,2022-09-12 15:31:26.000000
6705,1662993086.25,2022-09-12 15:31:26.250000
6706,1662993086.5,2022-09-12 15:31:26.500000
6707,1662993086.75,2022-09-12 15:31:26.750000
6708,1662993087.0,2022-09-12 15:31:27.000000
6709,1662993087.25,2022-09-12 15:31:27.250000
6710,1662993087.5,2022-09-12 15:31:27.500000
6711,1662993087.75,2022-09-12 15:31:27.750000
6712,1662993088.0,2022-09-12 15:31:28.000000
6713,1662993088.25,2022-09-12 15:31:28.250000
6714,1662993088.5,2022-09-12 15:31:28.500000
6715,1662993088.75,2022-09-12 15:31:28.750000
6716,1662993089.0,2022-09-12 15:31:29.000000
6717,1662993089.25,2022-09-12 15:31:29.250000
6718,1662993089.5,2022-09-12 15:31:29.500000
6719,1662993089.75,2022-09-12 15:31:29.750000
6720,1662993090.0,2022-09-12 15:31:30.000000
6721,1662993090.25,2022-09-12 15:31:30.250000
6722,1662993090.5,2022-09-12 15:31:30.500000
6723,1662993090.75,2022-09-12 15:31:30.750000
6724,1662993091.0,2022-09-12 15:31:31.000000
6725,1662993091.25,2022-09-12 15:31:31.250000
6726,1662993091.5,2022-09-12 15:31:31.500000
6727,1662993091.75,2022-09-12 15:31:31.750000
6728,1662993092.0,2022-09-12 15:31:32.000000
6729,1662993092.25,2022-09-12 15:31:32.250000
6730,1662993092.5,2022-09-12 15:31:32.500000
6731,1662993092.75,2022-09-12 15:31:32.750000
6732,1662993093.0,2022-09-12 15:31:33.000000
6733,1662993093.25,2022-09-12 15:31:33.250000
6734,1662993093.5,2022-09-12 15:31:33.500000
6735,1662993093.75,2022-09-12 15:31:33.750000
6736,1662993094.0,2022-09-12 15:31:34.000000
6737,1662993094.25,2022-09-12 15:31:34.250000
6738,1662993094.5,2022-09-12 15:31:34.500000
6739,1662993094.75,2022-09-12 15:31:34.750000
6740,1662993095.0,2022-09-12 15:31:35.000000
6741,1662993095.25,2022-09-12 15:31:35.250000
6742,1662993095.5,2022-09-12 15:31:35.500000
6743,1662993095.75,2022-09-12 15:31:35.750000
6744,1662993096.0,2022-09-12 15:31:36.000000
6745,1662993096.25,2022-09-12 15:31:36.250000
6746,1662993096.5,2022-09-12 15:31:36.500000
6747,1662993096.75,2022-09-12 15:31:36.750000
6748,1662993097.0,2022-09-12 15:31:37.000000
6749,1662993097.25,2022-09-12 15:31:37.250000
6750,1662993097.5,2022-09-12 15:31:37.500000
6751,1662993097.75,2022-09-12 15:31:37.750000
6752,1662993098.0,2022-09-12 15:31:38.000000
6753,1662993098.25,2022-09-12 15:31:38.250000
6754,1662993098.5,2022-09-12 15:31:38.500000
6755,1662993098.75,2022-09-12 15:31:38.750000
6756,1662993099.0,2022-09-12 15:31:39.000000
6757,1662993099.25,2022-09-12 15:31:39.250000
6758,1662993099.5,2022-09-12 15:31:39.500000
6759,1662993099.75,2022-09-12 15:31:39.750000
6760,1662993100.0,2022-09-12 15:31:40.000000
6761,1662993100.25,2022-09-12 15:31:40.250000
6762,1662993100.5,2022-09-12 15:31:40.500000
6763,1662993100.75,2022-09-12 15:31:40.750000
6764,1662993101.0,2022-09-12 15:31:41.000000
6765,1662993101.25,2022-09-12 15:31:41.250000
6766,1662993101.5,2022-09-12 15:31:41.500000
6767,1662993101.75,2022-09-12 15:31:41.750000
6768,1662993102.0,2022-09-12 15:31:42.000000
6769,1662993102.25,2022-09-12 15:31:42.250000
6770,1662993102.5,2022-09-12 15:31:42.500000
6771,1662993102.75,2022-09-12 15:31:42.750000
6772,1662993103.0,2022-09-12 15:31:43.000000
6773,1662993103.25,2022-09-12 15:31:43.250000
6774,1662993103.5,2022-09-12 15:31:43.500000
6775,1662993103.75,2022-09-12 15:31:43.750000
6776,1662993104.0,2022-09-12 15:31:44.000000
6777,1662993104.25,2022-09-12 15:31:44.250000
6778,1662993104.5,2022-09-12 15:31:44.500000
6779,1662993104.75,2022-09-12 15:31:44.750000
6780,1662993105.0,2022-09-12 15:31:45.000000
6781,1662993105.25,2022-09-12 15:31:45.250000
6782,1662993105.5,2022-09-12 15:31:45.500000
6783,1662993105.75,2022-09-12 15:31:45.750000
6784,1662993106.0,2022-09-12 15:31:46.000000
6785,1662993106.25,2022-09-12 15:31:46.250000
6786,1662993106.5,2022-09-12 15:31:46.500000
6787,1662993106.75,2022-09-12 15:31:46.750000
6788,1662993107.0,2022-09-12 15:31:47.000000
6789,1662993107.25,2022-09-12 15:31:47.250000
6790,1662993107.5,2022-09-12 15:31:47.500000
6791,1662993107.75,2022-09-12 15:31:47.750000
6792,1662993108.0,2022-09-12 15:31:48.000000
6793,1662993108.25,2022-09-12 15:31:48.250000
6794,1662993108.5,2022-09-12 15:31:48.500000
6795,1662993108.75,2022-09-12 15:31:48.750000
6796,1662993109.0,2022-09-12 15:31:49.000000
6797,1662993109.25,2022-09-12 15:31:49.250000
6798,1662993109.5,2022-09-12 15:31:49.500000
6799,1662993109.75,2022-09-12 15:31:49.750000
6800,1662993110.0,2022-09-12 15:31:50.000000
6801,1662993110.25,2022-09-12 15:31:50.250000
6802,1662993110.5,2022-09-12 15:31:50.500000
6803,1662993110.75,2022-09-12 15:31:50.750000
6804,1662993111.0,2022-09-12 15:31:51.000000
6805,1662993111.25,2022-09-12 15:31:51.250000
6806,1662993111.5,2022-09-12 15:31:51.500000
6807,1662993111.75,2022-09-12 15:31:51.750000
6808,1662993112.0,2022-09-12 15:31:52.000000
6809,1662993112.25,2022-09-12 15:31:52.250000
6810,1662993112.5,2022-09-12 15:31:52.500000
6811,1662993112.75,2022-09-12 15:31:52.750000
6812,1662993113.0,2022-09-12 15:31:53.000000
6813,1662993113.25,2022-09-12 15:31:53.250000
6814,1662993113.5,2022-09-12 15:31:53.500000
6815,1662993113.75,2022-09-12 15:31:53.750000
6816,1662993114.0,2022-09-12 15:31:54.000000
6817,1662993114.25,2022-09-12 15:31:54.250000
6818,1662993114.5,2022-09-12 15:31:54.500000
6819,1662993114.75,2022-09-12 15:31:54.750000
6820,1662993115.0,2022-09-12 15:31:55.000000
6821,1662993115.25,2022-09-12 15:31:55.250000
6822,1662993115.5,2022-09-12 15:31:55.500000
6823,1662993115.75,2022-09-12 15:31:55.750000
6824,1662993116.0,2022-09-12 15:31:56.000000
6825,1662993116.25,2022-09-12 15:31:56.250000
6826,1662993116.5,2022-09-12 15:31:56.500000
6827,1662993116.75,2022-09-12 15:31:56.750000
6828,1662993117.0,2022-09-12 15:31:57.000000
6829,1662993117.25,2022-09-12 15:31:57.250000
6830,1662993117.5,2022-09-12 15:31:57.500000
6831,1662993117.75,2022-09-12 15:31:57.750000
6832,1662993118.0,2022-09-12 15:31:58.000000
6833,1662993118.25,2022-09-12 15:31:58.250000
6834,1662993118.5,2022-09-12 15:31:58.500000
6835,1662993118.75,2022-09-12 15:31:58.750000
6836,1662993119.0,2022-09-12 15:31:59.000000
6837,1662993119.25,2022-09-12 15:31:59.250000
6838,1662993119.5,2022-09-12 15:31:59.500000
6839,1662993119.75,2022-09-12 15:31:59.750000
6840,1662993120.0,2022-09-12 15:32:00.000000
6841,1662993120.25,2022-09-12 15:32:00.250000
6842,1662993120.5,2022-09-12 15:32:00.500000
6843,1662993120.75,2022-09-12 15:32:00.750000
6844,1662993121.0,2022-09-12 15:32:01.000000
6845,1662993121.25,2022-09-12 15:32:01.250000
6846,1662993121.5,2022-09-12 15:32:01.500000
6847,1662993121.75,2022-09-12 15:32:01.750000
6848,1662993122.0,2022-09-12 15:32:02.000000
6849,1662993122.25,2022-09-12 15:32:02.250000
6850,1662993122.5,2022-09-12 15:32:02.500000
6851,1662993122.75,2022-09-12 15:32:02.750000
6852,1662993123.0,2022-09-12 15:32:03.000000
6853,1662993123.25,2022-09-12 15:32:03.250000
6854,1662993123.5,2022-09-12 15:32:03.500000
6855,1662993123.75,2022-09-12 15:32:03.750000
6857,1662993124.25,2022-09-12 15:32:04.250000
6861,1662993125.25,2022-09-12 15:32:05.250000
6863,1662993125.75,2022-09-12 15:32:05.750000
6866,1662993126.5,2022-09-12 15:32:06.500000
6867,1662993126.75,2022-09-12 15:32:06.750000
6868,1662993127.0,2022-09-12 15:32:07.000000
6869,1662993127.25,2022-09-12 15:32:07.250000
6870,1662993127.5,2022-09-12 15:32:07.500000
6871,1662993127.75,2022-09-12 15:32:07.750000
6873,1662993128.25,2022-09-12 15:32:08.250000
6874,1662993128.5,2022-09-12 15:32:08.500000
6875,1662993128.75,2022-09-12 15:32:08.750000
6876,1662993129.0,2022-09-12 15:32:09.000000
6877,1662993129.25,2022-09-12 15:32:09.250000
6878,1662993129.5,2022-09-12 15:32:09.500000
6879,1662993129.75,2022-09-12 15:32:09.750000
6880,1662993130.0,2022-09-12 15:32:10.000000
6881,1662993130.25,2022-09-12 15:32:10.250000
6882,1662993130.5,2022-09-12 15:32:10.500000
6883,1662993130.75,2022-09-12 15:32:10.750000
6884,1662993131.0,2022-09-12 15:32:11.000000
6885,1662993131.25,2022-09-12 15:32:11.250000
6886,1662993131.5,2022-09-12 15:32:11.500000
6887,1662993131.75,2022-09-12 15:32:11.750000
6888,1662993132.0,2022-09-12 15:32:12.000000
6889,1662993132.25,2022-09-12 15:32:12.250000
6890,1662993132.5,2022-09-12 15:32:12.500000
6891,1662993132.75,2022-09-12 15:32:12.750000
6892,1662993133.0,2022-09-12 15:32:13.000000
6893,1662993133.25,2022-09-12 15:32:13.250000
6894,1662993133.5,2022-09-12 15:32:13.500000
6895,1662993133.75,2022-09-12 15:32:13.750000
6896,1662993134.0,2022-09-12 15:32:14.000000
6897,1662993134.25,2022-09-12 15:32:14.250000
6898,1662993134.5,2022-09-12 15:32:14.500000
6899,1662993134.75,2022-09-12 15:32:14.750000
6900,1662993135.0,2022-09-12 15:32:15.000000
6901,1662993135.25,2022-09-12 15:32:15.250000
6902,1662993135.5,2022-09-12 15:32:15.500000
6903,1662993135.75,2022-09-12 15:32:15.750000
6904,1662993136.0,2022-09-12 15:32:16.000000
6905,1662993136.25,2022-09-12 15:32:16.250000
6906,1662993136.5,2022-09-12 15:32:16.500000
6907,1662993136.75,2022-09-12 15:32:16.750000
6908,1662993137.0,2022-09-12 15:32:17.000000
6909,1662993137.25,2022-09-12 15:32:17.250000
6910,1662993137.5,2022-09-12 15:32:17.500000
6911,1662993137.75,2022-09-12 15:32:17.750000
6912,1662993138.0,2022-09-12 15:32:18.000000
6913,1662993138.25,2022-09-12 15:32:18.250000
6914,1662993138.5,2022-09-12 15:32:18.500000
6915,1662993138.75,2022-09-12 15:32:18.750000
6916,1662993139.0,2022-09-12 15:32:19.000000
6917,1662993139.25,2022-09-12 15:32:19.250000
6918,1662993139.5,2022-09-12 15:32:19.500000
6919,1662993139.75,2022-09-12 15:32:19.750000
6920,1662993140.0,2022-09-12 15:32:20.000000
6921,1662993140.25,2022-09-12 15:32:20.250000
6922,1662993140.5,2022-09-12 15:32:20.500000
6923,1662993140.75,2022-09-12 15:32:20.750000
6924,1662993141.0,2022-09-12 15:32:21.000000
6925,1662993141.25,2022-09-12 15:32:21.250000
6926,1662993141.5,2022-09-12 15:32:21.500000
6927,1662993141.75,2022-09-12 15:32:21.750000
6928,1662993142.0,2022-09-12 15:32:22.000000
6929,1662993142.25,2022-09-12 15:32:22.250000
6930,1662993142.5,2022-09-12 15:32:22.500000
6931,1662993142.75,2022-09-12 15:32:22.750000
6932,1662993143.0,2022-09-12 15:32:23.000000
6933,1662993143.25,2022-09-12 15:32:23.250000
6934,1662993143.5,2022-09-12 15:32:23.500000
6935,1662993143.75,2022-09-12 15:32:23.750000
6936,1662993144.0,2022-09-12 15:32:24.000000
6937,1662993144.25,2022-09-12 15:32:24.250000
6938,1662993144.5,2022-09-12 15:32:24.500000
6939,1662993144.75,2022-09-12 15:32:24.750000
6940,1662993145.0,2022-09-12 15:32:25.000000
6941,1662993145.25,2022-09-12 15:32:25.250000
6942,1662993145.5,2022-09-12 15:32:25.500000
6943,1662993145.75,2022-09-12 15:32:25.750000
6944,1662993146.0,2022-09-12 15:32:26.000000
6945,1662993146.25,2022-09-12 15:32:26.250000
6946,1662993146.5,2022-09-12 15:32:26.500000
6947,1662993146.75,2022-09-12 15:32:26.750000
6948,1662993147.0,2022-09-12 15:32:27.000000
6949,1662993147.25,2022-09-12 15:32:27.250000
6950,1662993147.5,2022-09-12 15:32:27.500000
6951,1662993147.75,2022-09-12 15:32:27.750000
6952,1662993148.0,2022-09-12 15:32:28.000000
6953,1662993148.25,2022-09-12 15:32:28.250000
6954,1662993148.5,2022-09-12 15:32:28.500000
6955,1662993148.75,2022-09-12 15:32:28.750000
6956,1662993149.0,2022-09-12 15:32:29.000000
6957,1662993149.25,2022-09-12 15:32:29.250000
6958,1662993149.5,2022-09-12 15:32:29.500000
6959,1662993149.75,2022-09-12 15:32:29.750000
6960,1662993150.0,2022-09-12 15:32:30.000000
6961,1662993150.25,2022-09-12 15:32:30.250000
6962,1662993150.5,2022-09-12 15:32:30.500000
6963,1662993150.75,2022-09-12 15:32:30.750000
6964,1662993151.0,2022-09-12 15:32:31.000000
6965,1662993151.25,2022-09-12 15:32:31.250000
6966,1662993151.5,2022-09-12 15:32:31.500000
6967,1662993151.75,2022-09-12 15:32:31.750000
6968,1662993152.0,2022-09-12 15:32:32.000000
6969,1662993152.25,2022-09-12 15:32:32.250000
6970,1662993152.5,2022-09-12 15:32:32.500000
6971,1662993152.75,2022-09-12 15:32:32.750000
6972,1662993153.0,2022-09-12 15:32:33.000000
6973,1662993153.25,2022-09-12 15:32:33.250000
6974,1662993153.5,2022-09-12 15:32:33.500000
6975,1662993153.75,2022-09-12 15:32:33.750000
6976,1662993154.0,2022-09-12 15:32:34.000000
6977,1662993154.25,2022-09-12 15:32:34.250000
6978,1662993154.5,2022-09-12 15:32:34.500000
6979,1662993154.75,2022-09-12 15:32:34.750000
6980,1662993155.0,2022-09-12 15:32:35.000000
6981,1662993155.25,2022-09-12 15:32:35.250000
6982,1662993155.5,2022-09-12 15:32:35.500000
6983,1662993155.75,2022-09-12 15:32:35.750000
6984,1662993156.0,2022-09-12 15:32:36.000000
6985,1662993156.25,2022-09-12 15:32:36.250000
6986,1662993156.5,2022-09-12 15:32:36.500000
6987,1662993156.75,2022-09-12 15:32:36.750000
6988,1662993157.0,2022-09-12 15:32:37.000000
6989,1662993157.25,2022-09-12 15:32:37.250000
6990,1662993157.5,2022-09-12 15:32:37.500000
6991,1662993157.75,2022-09-12 15:32:37.750000
6992,1662993158.0,2022-09-12 15:32:38.000000
6993,1662993158.25,2022-09-12 15:32:38.250000
6994,1662993158.5,2022-09-12 15:32:38.500000
6995,1662993158.75,2022-09-12 15:32:38.750000
6996,1662993159.0,2022-09-12 15:32:39.000000
6997,1662993159.25,2022-09-12 15:32:39.250000
6998,1662993159.5,2022-09-12 15:32:39.500000
6999,1662993159.75,2022-09-12 15:32:39.750000
7000,1662993160.0,2022-09-12 15:32:40.000000
7001,1662993160.25,2022-09-12 15:32:40.250000
7002,1662993160.5,2022-09-12 15:32:40.500000
7003,1662993160.75,2022-09-12 15:32:40.750000
7004,1662993161.0,2022-09-12 15:32:41.000000
7005,1662993161.25,2022-09-12 15:32:41.250000
7006,1662993161.5,2022-09-12 15:32:41.500000
7007,1662993161.75,2022-09-12 15:32:41.750000
7008,1662993162.0,2022-09-12 15:32:42.000000
7009,1662993162.25,2022-09-12 15:32:42.250000
7010,1662993162.5,2022-09-12 15:32:42.500000
7011,1662993162.75,2022-09-12 15:32:42.750000
7012,1662993163.0,2022-09-12 15:32:43.000000
7013,1662993163.25,2022-09-12 15:32:43.250000
7014,1662993163.5,2022-09-12 15:32:43.500000
7015,1662993163.75,2022-09-12 15:32:43.750000
7016,1662993164.0,2022-09-12 15:32:44.000000
7017,1662993164.25,2022-09-12 15:32:44.250000
7018,1662993164.5,2022-09-12 15:32:44.500000
7019,1662993164.75,2022-09-12 15:32:44.750000
7020,1662993165.0,2022-09-12 15:32:45.000000
7021,1662993165.25,2022-09-12 15:32:45.250000
7022,1662993165.5,2022-09-12 15:32:45.500000
7023,1662993165.75,2022-09-12 15:32:45.750000
7024,1662993166.0,2022-09-12 15:32:46.000000
7025,1662993166.25,2022-09-12 15:32:46.250000
7026,1662993166.5,2022-09-12 15:32:46.500000
7027,1662993166.75,2022-09-12 15:32:46.750000
7028,1662993167.0,2022-09-12 15:32:47.000000
7029,1662993167.25,2022-09-12 15:32:47.250000
7030,1662993167.5,2022-09-12 15:32:47.500000
7031,1662993167.75,2022-09-12 15:32:47.750000
7032,1662993168.0,2022-09-12 15:32:48.000000
7033,1662993168.25,2022-09-12 15:32:48.250000
7034,1662993168.5,2022-09-12 15:32:48.500000
7035,1662993168.75,2022-09-12 15:32:48.750000
7036,1662993169.0,2022-09-12 15:32:49.000000
7037,1662993169.25,2022-09-12 15:32:49.250000
7038,1662993169.5,2022-09-12 15:32:49.500000
7039,1662993169.75,2022-09-12 15:32:49.750000
7040,1662993170.0,2022-09-12 15:32:50.000000
7041,1662993170.25,2022-09-12 15:32:50.250000
7042,1662993170.5,2022-09-12 15:32:50.500000
7043,1662993170.75,2022-09-12 15:32:50.750000
7044,1662993171.0,2022-09-12 15:32:51.000000
7045,1662993171.25,2022-09-12 15:32:51.250000
7046,1662993171.5,2022-09-12 15:32:51.500000
7047,1662993171.75,2022-09-12 15:32:51.750000
7048,1662993172.0,2022-09-12 15:32:52.000000
7049,1662993172.25,2022-09-12 15:32:52.250000
7050,1662993172.5,2022-09-12 15:32:52.500000
7051,1662993172.75,2022-09-12 15:32:52.750000
7052,1662993173.0,2022-09-12 15:32:53.000000
7053,1662993173.25,2022-09-12 15:32:53.250000
7054,1662993173.5,2022-09-12 15:32:53.500000
7055,1662993173.75,2022-09-12 15:32:53.750000
7056,1662993174.0,2022-09-12 15:32:54.000000
7057,1662993174.25,2022-09-12 15:32:54.250000
7058,1662993174.5,2022-09-12 15:32:54.500000
7059,1662993174.75,2022-09-12 15:32:54.750000
7060,1662993175.0,2022-09-12 15:32:55.000000
7061,1662993175.25,2022-09-12 15:32:55.250000
7062,1662993175.5,2022-09-12 15:32:55.500000
7063,1662993175.75,2022-09-12 15:32:55.750000
7064,1662993176.0,2022-09-12 15:32:56.000000
7065,1662993176.25,2022-09-12 15:32:56.250000
7066,1662993176.5,2022-09-12 15:32:56.500000
7067,1662993176.75,2022-09-12 15:32:56.750000
7068,1662993177.0,2022-09-12 15:32:57.000000
7069,1662993177.25,2022-09-12 15:32:57.250000
7070,1662993177.5,2022-09-12 15:32:57.500000
7071,1662993177.75,2022-09-12 15:32:57.750000
7072,1662993178.0,2022-09-12 15:32:58.000000
7073,1662993178.25,2022-09-12 15:32:58.250000
7074,1662993178.5,2022-09-12 15:32:58.500000
7075,1662993178.75,2022-09-12 15:32:58.750000
7076,1662993179.0,2022-09-12 15:32:59.000000
7077,1662993179.25,2022-09-12 15:32:59.250000
7078,1662993179.5,2022-09-12 15:32:59.500000
7079,1662993179.75,2022-09-12 15:32:59.750000
7080,1662993180.0,2022-09-12 15:33:00.000000
7081,1662993180.25,2022-09-12 15:33:00.250000
7082,1662993180.5,2022-09-12 15:33:00.500000
7083,1662993180.75,2022-09-12 15:33:00.750000
7084,1662993181.0,2022-09-12 15:33:01.000000
7085,1662993181.25,2022-09-12 15:33:01.250000
7086,1662993181.5,2022-09-12 15:33:01.500000
7087,1662993181.75,2022-09-12 15:33:01.750000
7088,1662993182.0,2022-09-12 15:33:02.000000
7089,1662993182.25,2022-09-12 15:33:02.250000
7090,1662993182.5,2022-09-12 15:33:02.500000
7091,1662993182.75,2022-09-12 15:33:02.750000
7092,1662993183.0,2022-09-12 15:33:03.000000
7093,1662993183.25,2022-09-12 15:33:03.250000
7094,1662993183.5,2022-09-12 15:33:03.500000
7095,1662993183.75,2022-09-12 15:33:03.750000
7096,1662993184.0,2022-09-12 15:33:04.000000
7097,1662993184.25,2022-09-12 15:33:04.250000
7098,1662993184.5,2022-09-12 15:33:04.500000
7099,1662993184.75,2022-09-12 15:33:04.750000
7100,1662993185.0,2022-09-12 15:33:05.000000
7101,1662993185.25,2022-09-12 15:33:05.250000
7102,1662993185.5,2022-09-12 15:33:05.500000
7103,1662993185.75,2022-09-12 15:33:05.750000
7104,1662993186.0,2022-09-12 15:33:06.000000
7105,1662993186.25,2022-09-12 15:33:06.250000
7106,1662993186.5,2022-09-12 15:33:06.500000
7107,1662993186.75,2022-09-12 15:33:06.750000
7108,1662993187.0,2022-09-12 15:33:07.000000
7109,1662993187.25,2022-09-12 15:33:07.250000
7110,1662993187.5,2022-09-12 15:33:07.500000
7111,1662993187.75,2022-09-12 15:33:07.750000
7112,1662993188.0,2022-09-12 15:33:08.000000
7113,1662993188.25,2022-09-12 15:33:08.250000
7114,1662993188.5,2022-09-12 15:33:08.500000
7115,1662993188.75,2022-09-12 15:33:08.750000
7116,1662993189.0,2022-09-12 15:33:09.000000
7117,1662993189.25,2022-09-12 15:33:09.250000
7118,1662993189.5,2022-09-12 15:33:09.500000
7119,1662993189.75,2022-09-12 15:33:09.750000
7120,1662993190.0,2022-09-12 15:33:10.000000
7121,1662993190.25,2022-09-12 15:33:10.250000
7122,1662993190.5,2022-09-12 15:33:10.500000
7123,1662993190.75,2022-09-12 15:33:10.750000
7124,1662993191.0,2022-09-12 15:33:11.000000
7125,1662993191.25,2022-09-12 15:33:11.250000
7126,1662993191.5,2022-09-12 15:33:11.500000
7127,1662993191.75,2022-09-12 15:33:11.750000
7128,1662993192.0,2022-09-12 15:33:12.000000
7129,1662993192.25,2022-09-12 15:33:12.250000
7130,1662993192.5,2022-09-12 15:33:12.500000
7131,1662993192.75,2022-09-12 15:33:12.750000
7132,1662993193.0,2022-09-12 15:33:13.000000
7133,1662993193.25,2022-09-12 15:33:13.250000
7134,1662993193.5,2022-09-12 15:33:13.500000
7135,1662993193.75,2022-09-12 15:33:13.750000
7136,1662993194.0,2022-09-12 15:33:14.000000
7137,1662993194.25,2022-09-12 15:33:14.250000
7138,1662993194.5,2022-09-12 15:33:14.500000
7139,1662993194.75,2022-09-12 15:33:14.750000
7140,1662993195.0,2022-09-12 15:33:15.000000
7141,1662993195.25,2022-09-12 15:33:15.250000
7142,1662993195.5,2022-09-12 15:33:15.500000
7143,1662993195.75,2022-09-12 15:33:15.750000
7144,1662993196.0,2022-09-12 15:33:16.000000
7145,1662993196.25,2022-09-12 15:33:16.250000
7146,1662993196.5,2022-09-12 15:33:16.500000
7147,1662993196.75,2022-09-12 15:33:16.750000
7148,1662993197.0,2022-09-12 15:33:17.000000
7149,1662993197.25,2022-09-12 15:33:17.250000
7150,1662993197.5,2022-09-12 15:33:17.500000
7151,1662993197.75,2022-09-12 15:33:17.750000
7152,1662993198.0,2022-09-12 15:33:18.000000
7153,1662993198.25,2022-09-12 15:33:18.250000
7154,1662993198.5,2022-09-12 15:33:18.500000
7155,1662993198.75,2022-09-12 15:33:18.750000
7156,1662993199.0,2022-09-12 15:33:19.000000
7157,1662993199.25,2022-09-12 15:33:19.250000
7158,1662993199.5,2022-09-12 15:33:19.500000
7159,1662993199.75,2022-09-12 15:33:19.750000
7160,1662993200.0,2022-09-12 15:33:20.000000
7161,1662993200.25,2022-09-12 15:33:20.250000
7162,1662993200.5,2022-09-12 15:33:20.500000
7163,1662993200.75,2022-09-12 15:33:20.750000
7164,1662993201.0,2022-09-12 15:33:21.000000
7165,1662993201.25,2022-09-12 15:33:21.250000
7166,1662993201.5,2022-09-12 15:33:21.500000
7167,1662993201.75,2022-09-12 15:33:21.750000
7168,1662993202.0,2022-09-12 15:33:22.000000
7169,1662993202.25,2022-09-12 15:33:22.250000
7170,1662993202.5,2022-09-12 15:33:22.500000
7171,1662993202.75,2022-09-12 15:33:22.750000
7172,1662993203.0,2022-09-12 15:33:23.000000
7173,1662993203.25,2022-09-12 15:33:23.250000
7174,1662993203.5,2022-09-12 15:33:23.500000
7175,1662993203.75,2022-09-12 15:33:23.750000
7176,1662993204.0,2022-09-12 15:33:24.000000
7177,1662993204.25,2022-09-12 15:33:24.250000
7178,1662993204.5,2022-09-12 15:33:24.500000
7179,1662993204.75,2022-09-12 15:33:24.750000
7180,1662993205.0,2022-09-12 15:33:25.000000
7181,1662993205.25,2022-09-12 15:33:25.250000
7182,1662993205.5,2022-09-12 15:33:25.500000
7183,1662993205.75,2022-09-12 15:33:25.750000
7184,1662993206.0,2022-09-12 15:33:26.000000
7185,1662993206.25,2022-09-12 15:33:26.250000
7186,1662993206.5,2022-09-12 15:33:26.500000
7187,1662993206.75,2022-09-12 15:33:26.750000
7188,1662993207.0,2022-09-12 15:33:27.000000
7189,1662993207.25,2022-09-12 15:33:27.250000
7190,1662993207.5,2022-09-12 15:33:27.500000
7191,1662993207.75,2022-09-12 15:33:27.750000
7192,1662993208.0,2022-09-12 15:33:28.000000
7193,1662993208.25,2022-09-12 15:33:28.250000
7194,1662993208.5,2022-09-12 15:33:28.500000
7195,1662993208.75,2022-09-12 15:33:28.750000
7196,1662993209.0,2022-09-12 15:33:29.000000
7197,1662993209.25,2022-09-12 15:33:29.250000
7198,1662993209.5,2022-09-12 15:33:29.500000
7199,1662993209.75,2022-09-12 15:33:29.750000
7200,1662993210.0,2022-09-12 15:33:30.000000
7201,1662993210.25,2022-09-12 15:33:30.250000
7202,1662993210.5,2022-09-12 15:33:30.500000
7203,1662993210.75,2022-09-12 15:33:30.750000
7204,1662993211.0,2022-09-12 15:33:31.000000
7205,1662993211.25,2022-09-12 15:33:31.250000
7206,1662993211.5,2022-09-12 15:33:31.500000
7207,1662993211.75,2022-09-12 15:33:31.750000
7208,1662993212.0,2022-09-12 15:33:32.000000
7209,1662993212.25,2022-09-12 15:33:32.250000
7210,1662993212.5,2022-09-12 15:33:32.500000
7211,1662993212.75,2022-09-12 15:33:32.750000
7212,1662993213.0,2022-09-12 15:33:33.000000
7213,1662993213.25,2022-09-12 15:33:33.250000
7214,1662993213.5,2022-09-12 15:33:33.500000
7215,1662993213.75,2022-09-12 15:33:33.750000
7216,1662993214.0,2022-09-12 15:33:34.000000
7217,1662993214.25,2022-09-12 15:33:34.250000
7218,1662993214.5,2022-09-12 15:33:34.500000
7219,1662993214.75,2022-09-12 15:33:34.750000
7220,1662993215.0,2022-09-12 15:33:35.000000
7221,1662993215.25,2022-09-12 15:33:35.250000
7222,1662993215.5,2022-09-12 15:33:35.500000
7223,1662993215.75,2022-09-12 15:33:35.750000
7224,1662993216.0,2022-09-12 15:33:36.000000
7225,1662993216.25,2022-09-12 15:33:36.250000
7226,1662993216.5,2022-09-12 15:33:36.500000
7227,1662993216.75,2022-09-12 15:33:36.750000
7228,1662993217.0,2022-09-12 15:33:37.000000
7229,1662993217.25,2022-09-12 15:33:37.250000
7230,1662993217.5,2022-09-12 15:33:37.500000
7231,1662993217.75,2022-09-12 15:33:37.750000
7232,1662993218.0,2022-09-12 15:33:38.000000
7233,1662993218.25,2022-09-12 15:33:38.250000
7234,1662993218.5,2022-09-12 15:33:38.500000
7235,1662993218.75,2022-09-12 15:33:38.750000
7236,1662993219.0,2022-09-12 15:33:39.000000
7237,1662993219.25,2022-09-12 15:33:39.250000
7238,1662993219.5,2022-09-12 15:33:39.500000
7239,1662993219.75,2022-09-12 15:33:39.750000
7240,1662993220.0,2022-09-12 15:33:40.000000
7241,1662993220.25,2022-09-12 15:33:40.250000
7242,1662993220.5,2022-09-12 15:33:40.500000
7243,1662993220.75,2022-09-12 15:33:40.750000
7244,1662993221.0,2022-09-12 15:33:41.000000
7245,1662993221.25,2022-09-12 15:33:41.250000
7246,1662993221.5,2022-09-12 15:33:41.500000
7247,1662993221.75,2022-09-12 15:33:41.750000
7248,1662993222.0,2022-09-12 15:33:42.000000
7249,1662993222.25,2022-09-12 15:33:42.250000
7250,1662993222.5,2022-09-12 15:33:42.500000
7251,1662993222.75,2022-09-12 15:33:42.750000
7252,1662993223.0,2022-09-12 15:33:43.000000
7253,1662993223.25,2022-09-12 15:33:43.250000
7254,1662993223.5,2022-09-12 15:33:43.500000
7255,1662993223.75,2022-09-12 15:33:43.750000
7256,1662993224.0,2022-09-12 15:33:44.000000
7257,1662993224.25,2022-09-12 15:33:44.250000
7258,1662993224.5,2022-09-12 15:33:44.500000
7259,1662993224.75,2022-09-12 15:33:44.750000
7260,1662993225.0,2022-09-12 15:33:45.000000
7261,1662993225.25,2022-09-12 15:33:45.250000
7262,1662993225.5,2022-09-12 15:33:45.500000
7263,1662993225.75,2022-09-12 15:33:45.750000
7264,1662993226.0,2022-09-12 15:33:46.000000
7265,1662993226.25,2022-09-12 15:33:46.250000
7267,1662993226.75,2022-09-12 15:33:46.750000
7279,1662993229.75,2022-09-12 15:33:49.750000
7280,1662993230.0,2022-09-12 15:33:50.000000
7286,1662993231.5,2022-09-12 15:33:51.500000
7289,1662993232.25,2022-09-12 15:33:52.250000
7294,1662993233.5,2022-09-12 15:33:53.500000
7295,1662993233.75,2022-09-12 15:33:53.750000
7298,1662993234.5,2022-09-12 15:33:54.500000
7299,1662993234.75,2022-09-12 15:33:54.750000
7300,1662993235.0,2022-09-12 15:33:55.000000
7301,1662993235.25,2022-09-12 15:33:55.250000
7302,1662993235.5,2022-09-12 15:33:55.500000
7303,1662993235.75,2022-09-12 15:33:55.750000
7304,1662993236.0,2022-09-12 15:33:56.000000
7305,1662993236.25,2022-09-12 15:33:56.250000
7306,1662993236.5,2022-09-12 15:33:56.500000
7307,1662993236.75,2022-09-12 15:33:56.750000
7308,1662993237.0,2022-09-12 15:33:57.000000
7309,1662993237.25,2022-09-12 15:33:57.250000
7310,1662993237.5,2022-09-12 15:33:57.500000
7312,1662993238.0,2022-09-12 15:33:58.000000
7313,1662993238.25,2022-09-12 15:33:58.250000
7314,1662993238.5,2022-09-12 15:33:58.500000
7316,1662993239.0,2022-09-12 15:33:59.000000
7317,1662993239.25,2022-09-12 15:33:59.250000
7320,1662993240.0,2022-09-12 15:34:00.000000
7321,1662993240.25,2022-09-12 15:34:00.250000
7325,1662993241.25,2022-09-12 15:34:01.250000
7330,1662993242.5,2022-09-12 15:34:02.500000
7334,1662993243.5,2022-09-12 15:34:03.500000
7337,1662993244.25,2022-09-12 15:34:04.250000
7338,1662993244.5,2022-09-12 15:34:04.500000
7339,1662993244.75,2022-09-12 15:34:04.750000
7340,1662993245.0,2022-09-12 15:34:05.000000
7341,1662993245.25,2022-09-12 15:34:05.250000
7342,1662993245.5,2022-09-12 15:34:05.500000
7343,1662993245.75,2022-09-12 15:34:05.750000
7344,1662993246.0,2022-09-12 15:34:06.000000
7346,1662993246.5,2022-09-12 15:34:06.500000
7347,1662993246.75,2022-09-12 15:34:06.750000
7349,1662993247.25,2022-09-12 15:34:07.250000
7352,1662993248.0,2022-09-12 15:34:08.000000
7378,1662993254.5,2022-09-12 15:34:14.500000
7379,1662993254.75,2022-09-12 15:34:14.750000
7380,1662993255.0,2022-09-12 15:34:15.000000
7381,1662993255.25,2022-09-12 15:34:15.250000
7382,1662993255.5,2022-09-12 15:34:15.500000
7383,1662993255.75,2022-09-12 15:34:15.750000
7384,1662993256.0,2022-09-12 15:34:16.000000
7385,1662993256.25,2022-09-12 15:34:16.250000
7386,1662993256.5,2022-09-12 15:34:16.500000
7389,1662993257.25,2022-09-12 15:34:17.250000
7391,1662993257.75,2022-09-12 15:34:17.750000
7399,1662993259.75,2022-09-12 15:34:19.750000
7400,1662993260.0,2022-09-12 15:34:20.000000
7488,1662993282.0,2022-09-12 15:34:42.000000
7490,1662993282.5,2022-09-12 15:34:42.500000
7491,1662993282.75,2022-09-12 15:34:42.750000
7492,1662993283.0,2022-09-12 15:34:43.000000
7493,1662993283.25,2022-09-12 15:34:43.250000
7494,1662993283.5,2022-09-12 15:34:43.500000
7496,1662993284.0,2022-09-12 15:34:44.000000
7497,1662993284.25,2022-09-12 15:34:44.250000
7498,1662993284.5,2022-09-12 15:34:44.500000
7500,1662993285.0,2022-09-12 15:34:45.000000
7501,1662993285.25,2022-09-12 15:34:45.250000
7502,1662993285.5,2022-09-12 15:34:45.500000
7503,1662993285.75,2022-09-12 15:34:45.750000
7504,1662993286.0,2022-09-12 15:34:46.000000
7505,1662993286.25,2022-09-12 15:34:46.250000
7506,1662993286.5,2022-09-12 15:34:46.500000
7507,1662993286.75,2022-09-12 15:34:46.750000
7508,1662993287.0,2022-09-12 15:34:47.000000
7509,1662993287.25,2022-09-12 15:34:47.250000
7510,1662993287.5,2022-09-12 15:34:47.500000
7511,1662993287.75,2022-09-12 15:34:47.750000
7512,1662993288.0,2022-09-12 15:34:48.000000
7513,1662993288.25,2022-09-12 15:34:48.250000
7514,1662993288.5,2022-09-12 15:34:48.500000
7515,1662993288.75,2022-09-12 15:34:48.750000
7516,1662993289.0,2022-09-12 15:34:49.000000
7517,1662993289.25,2022-09-12 15:34:49.250000
7518,1662993289.5,2022-09-12 15:34:49.500000
7519,1662993289.75,2022-09-12 15:34:49.750000
7520,1662993290.0,2022-09-12 15:34:50.000000
7521,1662993290.25,2022-09-12 15:34:50.250000
7522,1662993290.5,2022-09-12 15:34:50.500000
7523,1662993290.75,2022-09-12 15:34:50.750000
7524,1662993291.0,2022-09-12 15:34:51.000000
7525,1662993291.25,2022-09-12 15:34:51.250000
7526,1662993291.5,2022-09-12 15:34:51.500000
7527,1662993291.75,2022-09-12 15:34:51.750000
7528,1662993292.0,2022-09-12 15:34:52.000000
7529,1662993292.25,2022-09-12 15:34:52.250000
7530,1662993292.5,2022-09-12 15:34:52.500000
7542,1662993295.5,2022-09-12 15:34:55.500000
7546,1662993296.5,2022-09-12 15:34:56.500000
