,date_time,date_time_str
0,1662885134.0,2022-09-11 09:32:14.000000
1,1662885134.25,2022-09-11 09:32:14.250000
2,1662885134.5,2022-09-11 09:32:14.500000
3,1662885134.75,2022-09-11 09:32:14.750000
4,1662885135.0,2022-09-11 09:32:15.000000
5,1662885135.25,2022-09-11 09:32:15.250000
6,1662885135.5,2022-09-11 09:32:15.500000
7,1662885135.75,2022-09-11 09:32:15.750000
8,1662885136.0,2022-09-11 09:32:16.000000
9,1662885136.25,2022-09-11 09:32:16.250000
10,1662885136.5,2022-09-11 09:32:16.500000
11,1662885136.75,2022-09-11 09:32:16.750000
12,1662885137.0,2022-09-11 09:32:17.000000
13,1662885137.25,2022-09-11 09:32:17.250000
14,1662885137.5,2022-09-11 09:32:17.500000
15,1662885137.75,2022-09-11 09:32:17.750000
16,1662885138.0,2022-09-11 09:32:18.000000
17,1662885138.25,2022-09-11 09:32:18.250000
18,1662885138.5,2022-09-11 09:32:18.500000
19,1662885138.75,2022-09-11 09:32:18.750000
20,1662885139.0,2022-09-11 09:32:19.000000
21,1662885139.25,2022-09-11 09:32:19.250000
22,1662885139.5,2022-09-11 09:32:19.500000
23,1662885139.75,2022-09-11 09:32:19.750000
24,1662885140.0,2022-09-11 09:32:20.000000
25,1662885140.25,2022-09-11 09:32:20.250000
26,1662885140.5,2022-09-11 09:32:20.500000
27,1662885140.75,2022-09-11 09:32:20.750000
28,1662885141.0,2022-09-11 09:32:21.000000
29,1662885141.25,2022-09-11 09:32:21.250000
30,1662885141.5,2022-09-11 09:32:21.500000
31,1662885141.75,2022-09-11 09:32:21.750000
32,1662885142.0,2022-09-11 09:32:22.000000
33,1662885142.25,2022-09-11 09:32:22.250000
34,1662885142.5,2022-09-11 09:32:22.500000
35,1662885142.75,2022-09-11 09:32:22.750000
36,1662885143.0,2022-09-11 09:32:23.000000
37,1662885143.25,2022-09-11 09:32:23.250000
38,1662885143.5,2022-09-11 09:32:23.500000
39,1662885143.75,2022-09-11 09:32:23.750000
40,1662885144.0,2022-09-11 09:32:24.000000
41,1662885144.25,2022-09-11 09:32:24.250000
42,1662885144.5,2022-09-11 09:32:24.500000
43,1662885144.75,2022-09-11 09:32:24.750000
44,1662885145.0,2022-09-11 09:32:25.000000
45,1662885145.25,2022-09-11 09:32:25.250000
46,1662885145.5,2022-09-11 09:32:25.500000
47,1662885145.75,2022-09-11 09:32:25.750000
48,1662885146.0,2022-09-11 09:32:26.000000
49,1662885146.25,2022-09-11 09:32:26.250000
50,1662885146.5,2022-09-11 09:32:26.500000
51,1662885146.75,2022-09-11 09:32:26.750000
52,1662885147.0,2022-09-11 09:32:27.000000
53,1662885147.25,2022-09-11 09:32:27.250000
54,1662885147.5,2022-09-11 09:32:27.500000
55,1662885147.75,2022-09-11 09:32:27.750000
56,1662885148.0,2022-09-11 09:32:28.000000
57,1662885148.25,2022-09-11 09:32:28.250000
58,1662885148.5,2022-09-11 09:32:28.500000
59,1662885148.75,2022-09-11 09:32:28.750000
60,1662885149.0,2022-09-11 09:32:29.000000
61,1662885149.25,2022-09-11 09:32:29.250000
62,1662885149.5,2022-09-11 09:32:29.500000
63,1662885149.75,2022-09-11 09:32:29.750000
64,1662885150.0,2022-09-11 09:32:30.000000
65,1662885150.25,2022-09-11 09:32:30.250000
66,1662885150.5,2022-09-11 09:32:30.500000
67,1662885150.75,2022-09-11 09:32:30.750000
68,1662885151.0,2022-09-11 09:32:31.000000
69,1662885151.25,2022-09-11 09:32:31.250000
70,1662885151.5,2022-09-11 09:32:31.500000
71,1662885151.75,2022-09-11 09:32:31.750000
72,1662885152.0,2022-09-11 09:32:32.000000
73,1662885152.25,2022-09-11 09:32:32.250000
74,1662885152.5,2022-09-11 09:32:32.500000
75,1662885152.75,2022-09-11 09:32:32.750000
76,1662885153.0,2022-09-11 09:32:33.000000
77,1662885153.25,2022-09-11 09:32:33.250000
78,1662885153.5,2022-09-11 09:32:33.500000
79,1662885153.75,2022-09-11 09:32:33.750000
80,1662885154.0,2022-09-11 09:32:34.000000
81,1662885154.25,2022-09-11 09:32:34.250000
82,1662885154.5,2022-09-11 09:32:34.500000
83,1662885154.75,2022-09-11 09:32:34.750000
84,1662885155.0,2022-09-11 09:32:35.000000
85,1662885155.25,2022-09-11 09:32:35.250000
86,1662885155.5,2022-09-11 09:32:35.500000
87,1662885155.75,2022-09-11 09:32:35.750000
88,1662885156.0,2022-09-11 09:32:36.000000
89,1662885156.25,2022-09-11 09:32:36.250000
90,1662885156.5,2022-09-11 09:32:36.500000
91,1662885156.75,2022-09-11 09:32:36.750000
92,1662885157.0,2022-09-11 09:32:37.000000
93,1662885157.25,2022-09-11 09:32:37.250000
94,1662885157.5,2022-09-11 09:32:37.500000
95,1662885157.75,2022-09-11 09:32:37.750000
96,1662885158.0,2022-09-11 09:32:38.000000
97,1662885158.25,2022-09-11 09:32:38.250000
98,1662885158.5,2022-09-11 09:32:38.500000
99,1662885158.75,2022-09-11 09:32:38.750000
100,1662885159.0,2022-09-11 09:32:39.000000
101,1662885159.25,2022-09-11 09:32:39.250000
102,1662885159.5,2022-09-11 09:32:39.500000
103,1662885159.75,2022-09-11 09:32:39.750000
104,1662885160.0,2022-09-11 09:32:40.000000
105,1662885160.25,2022-09-11 09:32:40.250000
106,1662885160.5,2022-09-11 09:32:40.500000
107,1662885160.75,2022-09-11 09:32:40.750000
108,1662885161.0,2022-09-11 09:32:41.000000
109,1662885161.25,2022-09-11 09:32:41.250000
110,1662885161.5,2022-09-11 09:32:41.500000
111,1662885161.75,2022-09-11 09:32:41.750000
112,1662885162.0,2022-09-11 09:32:42.000000
113,1662885162.25,2022-09-11 09:32:42.250000
114,1662885162.5,2022-09-11 09:32:42.500000
115,1662885162.75,2022-09-11 09:32:42.750000
116,1662885163.0,2022-09-11 09:32:43.000000
117,1662885163.25,2022-09-11 09:32:43.250000
118,1662885163.5,2022-09-11 09:32:43.500000
119,1662885163.75,2022-09-11 09:32:43.750000
120,1662885164.0,2022-09-11 09:32:44.000000
121,1662885164.25,2022-09-11 09:32:44.250000
122,1662885164.5,2022-09-11 09:32:44.500000
123,1662885164.75,2022-09-11 09:32:44.750000
124,1662885165.0,2022-09-11 09:32:45.000000
125,1662885165.25,2022-09-11 09:32:45.250000
126,1662885165.5,2022-09-11 09:32:45.500000
127,1662885165.75,2022-09-11 09:32:45.750000
128,1662885166.0,2022-09-11 09:32:46.000000
129,1662885166.25,2022-09-11 09:32:46.250000
130,1662885166.5,2022-09-11 09:32:46.500000
131,1662885166.75,2022-09-11 09:32:46.750000
132,1662885167.0,2022-09-11 09:32:47.000000
133,1662885167.25,2022-09-11 09:32:47.250000
134,1662885167.5,2022-09-11 09:32:47.500000
135,1662885167.75,2022-09-11 09:32:47.750000
136,1662885168.0,2022-09-11 09:32:48.000000
137,1662885168.25,2022-09-11 09:32:48.250000
138,1662885168.5,2022-09-11 09:32:48.500000
139,1662885168.75,2022-09-11 09:32:48.750000
140,1662885169.0,2022-09-11 09:32:49.000000
141,1662885169.25,2022-09-11 09:32:49.250000
142,1662885169.5,2022-09-11 09:32:49.500000
143,1662885169.75,2022-09-11 09:32:49.750000
144,1662885170.0,2022-09-11 09:32:50.000000
145,1662885170.25,2022-09-11 09:32:50.250000
146,1662885170.5,2022-09-11 09:32:50.500000
147,1662885170.75,2022-09-11 09:32:50.750000
148,1662885171.0,2022-09-11 09:32:51.000000
149,1662885171.25,2022-09-11 09:32:51.250000
150,1662885171.5,2022-09-11 09:32:51.500000
151,1662885171.75,2022-09-11 09:32:51.750000
152,1662885172.0,2022-09-11 09:32:52.000000
153,1662885172.25,2022-09-11 09:32:52.250000
154,1662885172.5,2022-09-11 09:32:52.500000
155,1662885172.75,2022-09-11 09:32:52.750000
156,1662885173.0,2022-09-11 09:32:53.000000
157,1662885173.25,2022-09-11 09:32:53.250000
158,1662885173.5,2022-09-11 09:32:53.500000
159,1662885173.75,2022-09-11 09:32:53.750000
160,1662885174.0,2022-09-11 09:32:54.000000
161,1662885174.25,2022-09-11 09:32:54.250000
162,1662885174.5,2022-09-11 09:32:54.500000
163,1662885174.75,2022-09-11 09:32:54.750000
164,1662885175.0,2022-09-11 09:32:55.000000
165,1662885175.25,2022-09-11 09:32:55.250000
166,1662885175.5,2022-09-11 09:32:55.500000
167,1662885175.75,2022-09-11 09:32:55.750000
168,1662885176.0,2022-09-11 09:32:56.000000
169,1662885176.25,2022-09-11 09:32:56.250000
170,1662885176.5,2022-09-11 09:32:56.500000
171,1662885176.75,2022-09-11 09:32:56.750000
172,1662885177.0,2022-09-11 09:32:57.000000
173,1662885177.25,2022-09-11 09:32:57.250000
174,1662885177.5,2022-09-11 09:32:57.500000
175,1662885177.75,2022-09-11 09:32:57.750000
176,1662885178.0,2022-09-11 09:32:58.000000
177,1662885178.25,2022-09-11 09:32:58.250000
178,1662885178.5,2022-09-11 09:32:58.500000
179,1662885178.75,2022-09-11 09:32:58.750000
180,1662885179.0,2022-09-11 09:32:59.000000
181,1662885179.25,2022-09-11 09:32:59.250000
182,1662885179.5,2022-09-11 09:32:59.500000
183,1662885179.75,2022-09-11 09:32:59.750000
184,1662885180.0,2022-09-11 09:33:00.000000
185,1662885180.25,2022-09-11 09:33:00.250000
186,1662885180.5,2022-09-11 09:33:00.500000
187,1662885180.75,2022-09-11 09:33:00.750000
188,1662885181.0,2022-09-11 09:33:01.000000
189,1662885181.25,2022-09-11 09:33:01.250000
190,1662885181.5,2022-09-11 09:33:01.500000
191,1662885181.75,2022-09-11 09:33:01.750000
192,1662885182.0,2022-09-11 09:33:02.000000
193,1662885182.25,2022-09-11 09:33:02.250000
194,1662885182.5,2022-09-11 09:33:02.500000
195,1662885182.75,2022-09-11 09:33:02.750000
196,1662885183.0,2022-09-11 09:33:03.000000
197,1662885183.25,2022-09-11 09:33:03.250000
198,1662885183.5,2022-09-11 09:33:03.500000
199,1662885183.75,2022-09-11 09:33:03.750000
200,1662885184.0,2022-09-11 09:33:04.000000
201,1662885184.25,2022-09-11 09:33:04.250000
202,1662885184.5,2022-09-11 09:33:04.500000
203,1662885184.75,2022-09-11 09:33:04.750000
204,1662885185.0,2022-09-11 09:33:05.000000
205,1662885185.25,2022-09-11 09:33:05.250000
206,1662885185.5,2022-09-11 09:33:05.500000
207,1662885185.75,2022-09-11 09:33:05.750000
208,1662885186.0,2022-09-11 09:33:06.000000
209,1662885186.25,2022-09-11 09:33:06.250000
210,1662885186.5,2022-09-11 09:33:06.500000
211,1662885186.75,2022-09-11 09:33:06.750000
212,1662885187.0,2022-09-11 09:33:07.000000
213,1662885187.25,2022-09-11 09:33:07.250000
214,1662885187.5,2022-09-11 09:33:07.500000
215,1662885187.75,2022-09-11 09:33:07.750000
216,1662885188.0,2022-09-11 09:33:08.000000
217,1662885188.25,2022-09-11 09:33:08.250000
218,1662885188.5,2022-09-11 09:33:08.500000
219,1662885188.75,2022-09-11 09:33:08.750000
220,1662885189.0,2022-09-11 09:33:09.000000
221,1662885189.25,2022-09-11 09:33:09.250000
222,1662885189.5,2022-09-11 09:33:09.500000
223,1662885189.75,2022-09-11 09:33:09.750000
224,1662885190.0,2022-09-11 09:33:10.000000
225,1662885190.25,2022-09-11 09:33:10.250000
226,1662885190.5,2022-09-11 09:33:10.500000
227,1662885190.75,2022-09-11 09:33:10.750000
228,1662885191.0,2022-09-11 09:33:11.000000
229,1662885191.25,2022-09-11 09:33:11.250000
230,1662885191.5,2022-09-11 09:33:11.500000
231,1662885191.75,2022-09-11 09:33:11.750000
232,1662885192.0,2022-09-11 09:33:12.000000
233,1662885192.25,2022-09-11 09:33:12.250000
234,1662885192.5,2022-09-11 09:33:12.500000
235,1662885192.75,2022-09-11 09:33:12.750000
236,1662885193.0,2022-09-11 09:33:13.000000
237,1662885193.25,2022-09-11 09:33:13.250000
238,1662885193.5,2022-09-11 09:33:13.500000
239,1662885193.75,2022-09-11 09:33:13.750000
240,1662885194.0,2022-09-11 09:33:14.000000
241,1662885194.25,2022-09-11 09:33:14.250000
242,1662885194.5,2022-09-11 09:33:14.500000
243,1662885194.75,2022-09-11 09:33:14.750000
244,1662885195.0,2022-09-11 09:33:15.000000
245,1662885195.25,2022-09-11 09:33:15.250000
246,1662885195.5,2022-09-11 09:33:15.500000
247,1662885195.75,2022-09-11 09:33:15.750000
248,1662885196.0,2022-09-11 09:33:16.000000
249,1662885196.25,2022-09-11 09:33:16.250000
250,1662885196.5,2022-09-11 09:33:16.500000
251,1662885196.75,2022-09-11 09:33:16.750000
252,1662885197.0,2022-09-11 09:33:17.000000
253,1662885197.25,2022-09-11 09:33:17.250000
254,1662885197.5,2022-09-11 09:33:17.500000
255,1662885197.75,2022-09-11 09:33:17.750000
256,1662885198.0,2022-09-11 09:33:18.000000
257,1662885198.25,2022-09-11 09:33:18.250000
258,1662885198.5,2022-09-11 09:33:18.500000
259,1662885198.75,2022-09-11 09:33:18.750000
260,1662885199.0,2022-09-11 09:33:19.000000
261,1662885199.25,2022-09-11 09:33:19.250000
262,1662885199.5,2022-09-11 09:33:19.500000
263,1662885199.75,2022-09-11 09:33:19.750000
264,1662885200.0,2022-09-11 09:33:20.000000
265,1662885200.25,2022-09-11 09:33:20.250000
266,1662885200.5,2022-09-11 09:33:20.500000
267,1662885200.75,2022-09-11 09:33:20.750000
268,1662885201.0,2022-09-11 09:33:21.000000
269,1662885201.25,2022-09-11 09:33:21.250000
270,1662885201.5,2022-09-11 09:33:21.500000
271,1662885201.75,2022-09-11 09:33:21.750000
272,1662885202.0,2022-09-11 09:33:22.000000
273,1662885202.25,2022-09-11 09:33:22.250000
274,1662885202.5,2022-09-11 09:33:22.500000
275,1662885202.75,2022-09-11 09:33:22.750000
276,1662885203.0,2022-09-11 09:33:23.000000
277,1662885203.25,2022-09-11 09:33:23.250000
278,1662885203.5,2022-09-11 09:33:23.500000
279,1662885203.75,2022-09-11 09:33:23.750000
280,1662885204.0,2022-09-11 09:33:24.000000
281,1662885204.25,2022-09-11 09:33:24.250000
282,1662885204.5,2022-09-11 09:33:24.500000
283,1662885204.75,2022-09-11 09:33:24.750000
284,1662885205.0,2022-09-11 09:33:25.000000
285,1662885205.25,2022-09-11 09:33:25.250000
286,1662885205.5,2022-09-11 09:33:25.500000
287,1662885205.75,2022-09-11 09:33:25.750000
288,1662885206.0,2022-09-11 09:33:26.000000
289,1662885206.25,2022-09-11 09:33:26.250000
290,1662885206.5,2022-09-11 09:33:26.500000
291,1662885206.75,2022-09-11 09:33:26.750000
292,1662885207.0,2022-09-11 09:33:27.000000
293,1662885207.25,2022-09-11 09:33:27.250000
294,1662885207.5,2022-09-11 09:33:27.500000
295,1662885207.75,2022-09-11 09:33:27.750000
296,1662885208.0,2022-09-11 09:33:28.000000
297,1662885208.25,2022-09-11 09:33:28.250000
298,1662885208.5,2022-09-11 09:33:28.500000
299,1662885208.75,2022-09-11 09:33:28.750000
300,1662885209.0,2022-09-11 09:33:29.000000
301,1662885209.25,2022-09-11 09:33:29.250000
302,1662885209.5,2022-09-11 09:33:29.500000
303,1662885209.75,2022-09-11 09:33:29.750000
304,1662885210.0,2022-09-11 09:33:30.000000
305,1662885210.25,2022-09-11 09:33:30.250000
306,1662885210.5,2022-09-11 09:33:30.500000
307,1662885210.75,2022-09-11 09:33:30.750000
308,1662885211.0,2022-09-11 09:33:31.000000
309,1662885211.25,2022-09-11 09:33:31.250000
310,1662885211.5,2022-09-11 09:33:31.500000
311,1662885211.75,2022-09-11 09:33:31.750000
312,1662885212.0,2022-09-11 09:33:32.000000
313,1662885212.25,2022-09-11 09:33:32.250000
314,1662885212.5,2022-09-11 09:33:32.500000
315,1662885212.75,2022-09-11 09:33:32.750000
316,1662885213.0,2022-09-11 09:33:33.000000
317,1662885213.25,2022-09-11 09:33:33.250000
318,1662885213.5,2022-09-11 09:33:33.500000
319,1662885213.75,2022-09-11 09:33:33.750000
320,1662885214.0,2022-09-11 09:33:34.000000
321,1662885214.25,2022-09-11 09:33:34.250000
322,1662885214.5,2022-09-11 09:33:34.500000
323,1662885214.75,2022-09-11 09:33:34.750000
324,1662885215.0,2022-09-11 09:33:35.000000
325,1662885215.25,2022-09-11 09:33:35.250000
326,1662885215.5,2022-09-11 09:33:35.500000
327,1662885215.75,2022-09-11 09:33:35.750000
328,1662885216.0,2022-09-11 09:33:36.000000
329,1662885216.25,2022-09-11 09:33:36.250000
330,1662885216.5,2022-09-11 09:33:36.500000
331,1662885216.75,2022-09-11 09:33:36.750000
332,1662885217.0,2022-09-11 09:33:37.000000
333,1662885217.25,2022-09-11 09:33:37.250000
334,1662885217.5,2022-09-11 09:33:37.500000
335,1662885217.75,2022-09-11 09:33:37.750000
336,1662885218.0,2022-09-11 09:33:38.000000
337,1662885218.25,2022-09-11 09:33:38.250000
338,1662885218.5,2022-09-11 09:33:38.500000
339,1662885218.75,2022-09-11 09:33:38.750000
340,1662885219.0,2022-09-11 09:33:39.000000
341,1662885219.25,2022-09-11 09:33:39.250000
342,1662885219.5,2022-09-11 09:33:39.500000
343,1662885219.75,2022-09-11 09:33:39.750000
344,1662885220.0,2022-09-11 09:33:40.000000
345,1662885220.25,2022-09-11 09:33:40.250000
346,1662885220.5,2022-09-11 09:33:40.500000
347,1662885220.75,2022-09-11 09:33:40.750000
348,1662885221.0,2022-09-11 09:33:41.000000
349,1662885221.25,2022-09-11 09:33:41.250000
350,1662885221.5,2022-09-11 09:33:41.500000
351,1662885221.75,2022-09-11 09:33:41.750000
352,1662885222.0,2022-09-11 09:33:42.000000
353,1662885222.25,2022-09-11 09:33:42.250000
354,1662885222.5,2022-09-11 09:33:42.500000
355,1662885222.75,2022-09-11 09:33:42.750000
356,1662885223.0,2022-09-11 09:33:43.000000
357,1662885223.25,2022-09-11 09:33:43.250000
358,1662885223.5,2022-09-11 09:33:43.500000
359,1662885223.75,2022-09-11 09:33:43.750000
360,1662885224.0,2022-09-11 09:33:44.000000
361,1662885224.25,2022-09-11 09:33:44.250000
362,1662885224.5,2022-09-11 09:33:44.500000
363,1662885224.75,2022-09-11 09:33:44.750000
364,1662885225.0,2022-09-11 09:33:45.000000
365,1662885225.25,2022-09-11 09:33:45.250000
366,1662885225.5,2022-09-11 09:33:45.500000
367,1662885225.75,2022-09-11 09:33:45.750000
368,1662885226.0,2022-09-11 09:33:46.000000
369,1662885226.25,2022-09-11 09:33:46.250000
370,1662885226.5,2022-09-11 09:33:46.500000
371,1662885226.75,2022-09-11 09:33:46.750000
372,1662885227.0,2022-09-11 09:33:47.000000
373,1662885227.25,2022-09-11 09:33:47.250000
374,1662885227.5,2022-09-11 09:33:47.500000
375,1662885227.75,2022-09-11 09:33:47.750000
376,1662885228.0,2022-09-11 09:33:48.000000
377,1662885228.25,2022-09-11 09:33:48.250000
378,1662885228.5,2022-09-11 09:33:48.500000
379,1662885228.75,2022-09-11 09:33:48.750000
380,1662885229.0,2022-09-11 09:33:49.000000
381,1662885229.25,2022-09-11 09:33:49.250000
382,1662885229.5,2022-09-11 09:33:49.500000
383,1662885229.75,2022-09-11 09:33:49.750000
384,1662885230.0,2022-09-11 09:33:50.000000
385,1662885230.25,2022-09-11 09:33:50.250000
386,1662885230.5,2022-09-11 09:33:50.500000
387,1662885230.75,2022-09-11 09:33:50.750000
388,1662885231.0,2022-09-11 09:33:51.000000
389,1662885231.25,2022-09-11 09:33:51.250000
390,1662885231.5,2022-09-11 09:33:51.500000
391,1662885231.75,2022-09-11 09:33:51.750000
392,1662885232.0,2022-09-11 09:33:52.000000
393,1662885232.25,2022-09-11 09:33:52.250000
394,1662885232.5,2022-09-11 09:33:52.500000
395,1662885232.75,2022-09-11 09:33:52.750000
396,1662885233.0,2022-09-11 09:33:53.000000
397,1662885233.25,2022-09-11 09:33:53.250000
398,1662885233.5,2022-09-11 09:33:53.500000
399,1662885233.75,2022-09-11 09:33:53.750000
400,1662885234.0,2022-09-11 09:33:54.000000
401,1662885234.25,2022-09-11 09:33:54.250000
402,1662885234.5,2022-09-11 09:33:54.500000
403,1662885234.75,2022-09-11 09:33:54.750000
404,1662885235.0,2022-09-11 09:33:55.000000
405,1662885235.25,2022-09-11 09:33:55.250000
406,1662885235.5,2022-09-11 09:33:55.500000
407,1662885235.75,2022-09-11 09:33:55.750000
408,1662885236.0,2022-09-11 09:33:56.000000
409,1662885236.25,2022-09-11 09:33:56.250000
410,1662885236.5,2022-09-11 09:33:56.500000
411,1662885236.75,2022-09-11 09:33:56.750000
412,1662885237.0,2022-09-11 09:33:57.000000
413,1662885237.25,2022-09-11 09:33:57.250000
414,1662885237.5,2022-09-11 09:33:57.500000
415,1662885237.75,2022-09-11 09:33:57.750000
416,1662885238.0,2022-09-11 09:33:58.000000
417,1662885238.25,2022-09-11 09:33:58.250000
418,1662885238.5,2022-09-11 09:33:58.500000
419,1662885238.75,2022-09-11 09:33:58.750000
420,1662885239.0,2022-09-11 09:33:59.000000
421,1662885239.25,2022-09-11 09:33:59.250000
422,1662885239.5,2022-09-11 09:33:59.500000
423,1662885239.75,2022-09-11 09:33:59.750000
424,1662885240.0,2022-09-11 09:34:00.000000
425,1662885240.25,2022-09-11 09:34:00.250000
426,1662885240.5,2022-09-11 09:34:00.500000
427,1662885240.75,2022-09-11 09:34:00.750000
428,1662885241.0,2022-09-11 09:34:01.000000
429,1662885241.25,2022-09-11 09:34:01.250000
430,1662885241.5,2022-09-11 09:34:01.500000
431,1662885241.75,2022-09-11 09:34:01.750000
432,1662885242.0,2022-09-11 09:34:02.000000
433,1662885242.25,2022-09-11 09:34:02.250000
434,1662885242.5,2022-09-11 09:34:02.500000
435,1662885242.75,2022-09-11 09:34:02.750000
436,1662885243.0,2022-09-11 09:34:03.000000
437,1662885243.25,2022-09-11 09:34:03.250000
438,1662885243.5,2022-09-11 09:34:03.500000
439,1662885243.75,2022-09-11 09:34:03.750000
440,1662885244.0,2022-09-11 09:34:04.000000
441,1662885244.25,2022-09-11 09:34:04.250000
442,1662885244.5,2022-09-11 09:34:04.500000
443,1662885244.75,2022-09-11 09:34:04.750000
444,1662885245.0,2022-09-11 09:34:05.000000
445,1662885245.25,2022-09-11 09:34:05.250000
446,1662885245.5,2022-09-11 09:34:05.500000
447,1662885245.75,2022-09-11 09:34:05.750000
448,1662885246.0,2022-09-11 09:34:06.000000
449,1662885246.25,2022-09-11 09:34:06.250000
450,1662885246.5,2022-09-11 09:34:06.500000
451,1662885246.75,2022-09-11 09:34:06.750000
452,1662885247.0,2022-09-11 09:34:07.000000
453,1662885247.25,2022-09-11 09:34:07.250000
454,1662885247.5,2022-09-11 09:34:07.500000
455,1662885247.75,2022-09-11 09:34:07.750000
456,1662885248.0,2022-09-11 09:34:08.000000
457,1662885248.25,2022-09-11 09:34:08.250000
458,1662885248.5,2022-09-11 09:34:08.500000
459,1662885248.75,2022-09-11 09:34:08.750000
460,1662885249.0,2022-09-11 09:34:09.000000
461,1662885249.25,2022-09-11 09:34:09.250000
462,1662885249.5,2022-09-11 09:34:09.500000
463,1662885249.75,2022-09-11 09:34:09.750000
464,1662885250.0,2022-09-11 09:34:10.000000
465,1662885250.25,2022-09-11 09:34:10.250000
466,1662885250.5,2022-09-11 09:34:10.500000
467,1662885250.75,2022-09-11 09:34:10.750000
468,1662885251.0,2022-09-11 09:34:11.000000
469,1662885251.25,2022-09-11 09:34:11.250000
470,1662885251.5,2022-09-11 09:34:11.500000
471,1662885251.75,2022-09-11 09:34:11.750000
472,1662885252.0,2022-09-11 09:34:12.000000
473,1662885252.25,2022-09-11 09:34:12.250000
474,1662885252.5,2022-09-11 09:34:12.500000
475,1662885252.75,2022-09-11 09:34:12.750000
476,1662885253.0,2022-09-11 09:34:13.000000
477,1662885253.25,2022-09-11 09:34:13.250000
478,1662885253.5,2022-09-11 09:34:13.500000
479,1662885253.75,2022-09-11 09:34:13.750000
480,1662885254.0,2022-09-11 09:34:14.000000
481,1662885254.25,2022-09-11 09:34:14.250000
482,1662885254.5,2022-09-11 09:34:14.500000
483,1662885254.75,2022-09-11 09:34:14.750000
484,1662885255.0,2022-09-11 09:34:15.000000
485,1662885255.25,2022-09-11 09:34:15.250000
486,1662885255.5,2022-09-11 09:34:15.500000
487,1662885255.75,2022-09-11 09:34:15.750000
488,1662885256.0,2022-09-11 09:34:16.000000
489,1662885256.25,2022-09-11 09:34:16.250000
490,1662885256.5,2022-09-11 09:34:16.500000
491,1662885256.75,2022-09-11 09:34:16.750000
492,1662885257.0,2022-09-11 09:34:17.000000
493,1662885257.25,2022-09-11 09:34:17.250000
494,1662885257.5,2022-09-11 09:34:17.500000
495,1662885257.75,2022-09-11 09:34:17.750000
496,1662885258.0,2022-09-11 09:34:18.000000
497,1662885258.25,2022-09-11 09:34:18.250000
498,1662885258.5,2022-09-11 09:34:18.500000
499,1662885258.75,2022-09-11 09:34:18.750000
500,1662885259.0,2022-09-11 09:34:19.000000
501,1662885259.25,2022-09-11 09:34:19.250000
502,1662885259.5,2022-09-11 09:34:19.500000
503,1662885259.75,2022-09-11 09:34:19.750000
504,1662885260.0,2022-09-11 09:34:20.000000
505,1662885260.25,2022-09-11 09:34:20.250000
506,1662885260.5,2022-09-11 09:34:20.500000
507,1662885260.75,2022-09-11 09:34:20.750000
508,1662885261.0,2022-09-11 09:34:21.000000
509,1662885261.25,2022-09-11 09:34:21.250000
510,1662885261.5,2022-09-11 09:34:21.500000
511,1662885261.75,2022-09-11 09:34:21.750000
512,1662885262.0,2022-09-11 09:34:22.000000
513,1662885262.25,2022-09-11 09:34:22.250000
514,1662885262.5,2022-09-11 09:34:22.500000
515,1662885262.75,2022-09-11 09:34:22.750000
516,1662885263.0,2022-09-11 09:34:23.000000
517,1662885263.25,2022-09-11 09:34:23.250000
518,1662885263.5,2022-09-11 09:34:23.500000
519,1662885263.75,2022-09-11 09:34:23.750000
520,1662885264.0,2022-09-11 09:34:24.000000
521,1662885264.25,2022-09-11 09:34:24.250000
522,1662885264.5,2022-09-11 09:34:24.500000
523,1662885264.75,2022-09-11 09:34:24.750000
524,1662885265.0,2022-09-11 09:34:25.000000
525,1662885265.25,2022-09-11 09:34:25.250000
526,1662885265.5,2022-09-11 09:34:25.500000
527,1662885265.75,2022-09-11 09:34:25.750000
528,1662885266.0,2022-09-11 09:34:26.000000
529,1662885266.25,2022-09-11 09:34:26.250000
530,1662885266.5,2022-09-11 09:34:26.500000
531,1662885266.75,2022-09-11 09:34:26.750000
532,1662885267.0,2022-09-11 09:34:27.000000
533,1662885267.25,2022-09-11 09:34:27.250000
534,1662885267.5,2022-09-11 09:34:27.500000
535,1662885267.75,2022-09-11 09:34:27.750000
536,1662885268.0,2022-09-11 09:34:28.000000
537,1662885268.25,2022-09-11 09:34:28.250000
538,1662885268.5,2022-09-11 09:34:28.500000
539,1662885268.75,2022-09-11 09:34:28.750000
540,1662885269.0,2022-09-11 09:34:29.000000
541,1662885269.25,2022-09-11 09:34:29.250000
542,1662885269.5,2022-09-11 09:34:29.500000
543,1662885269.75,2022-09-11 09:34:29.750000
544,1662885270.0,2022-09-11 09:34:30.000000
545,1662885270.25,2022-09-11 09:34:30.250000
546,1662885270.5,2022-09-11 09:34:30.500000
547,1662885270.75,2022-09-11 09:34:30.750000
548,1662885271.0,2022-09-11 09:34:31.000000
549,1662885271.25,2022-09-11 09:34:31.250000
550,1662885271.5,2022-09-11 09:34:31.500000
558,1662885273.5,2022-09-11 09:34:33.500000
559,1662885273.75,2022-09-11 09:34:33.750000
560,1662885274.0,2022-09-11 09:34:34.000000
561,1662885274.25,2022-09-11 09:34:34.250000
562,1662885274.5,2022-09-11 09:34:34.500000
563,1662885274.75,2022-09-11 09:34:34.750000
564,1662885275.0,2022-09-11 09:34:35.000000
565,1662885275.25,2022-09-11 09:34:35.250000
566,1662885275.5,2022-09-11 09:34:35.500000
567,1662885275.75,2022-09-11 09:34:35.750000
570,1662885276.5,2022-09-11 09:34:36.500000
571,1662885276.75,2022-09-11 09:34:36.750000
572,1662885277.0,2022-09-11 09:34:37.000000
573,1662885277.25,2022-09-11 09:34:37.250000
574,1662885277.5,2022-09-11 09:34:37.500000
580,1662885279.0,2022-09-11 09:34:39.000000
582,1662885279.5,2022-09-11 09:34:39.500000
583,1662885279.75,2022-09-11 09:34:39.750000
585,1662885280.25,2022-09-11 09:34:40.250000
586,1662885280.5,2022-09-11 09:34:40.500000
587,1662885280.75,2022-09-11 09:34:40.750000
588,1662885281.0,2022-09-11 09:34:41.000000
589,1662885281.25,2022-09-11 09:34:41.250000
590,1662885281.5,2022-09-11 09:34:41.500000
591,1662885281.75,2022-09-11 09:34:41.750000
592,1662885282.0,2022-09-11 09:34:42.000000
593,1662885282.25,2022-09-11 09:34:42.250000
594,1662885282.5,2022-09-11 09:34:42.500000
595,1662885282.75,2022-09-11 09:34:42.750000
596,1662885283.0,2022-09-11 09:34:43.000000
597,1662885283.25,2022-09-11 09:34:43.250000
598,1662885283.5,2022-09-11 09:34:43.500000
599,1662885283.75,2022-09-11 09:34:43.750000
600,1662885284.0,2022-09-11 09:34:44.000000
601,1662885284.25,2022-09-11 09:34:44.250000
606,1662885285.5,2022-09-11 09:34:45.500000
608,1662885286.0,2022-09-11 09:34:46.000000
615,1662885287.75,2022-09-11 09:34:47.750000
616,1662885288.0,2022-09-11 09:34:48.000000
617,1662885288.25,2022-09-11 09:34:48.250000
618,1662885288.5,2022-09-11 09:34:48.500000
619,1662885288.75,2022-09-11 09:34:48.750000
620,1662885289.0,2022-09-11 09:34:49.000000
621,1662885289.25,2022-09-11 09:34:49.250000
622,1662885289.5,2022-09-11 09:34:49.500000
623,1662885289.75,2022-09-11 09:34:49.750000
624,1662885290.0,2022-09-11 09:34:50.000000
625,1662885290.25,2022-09-11 09:34:50.250000
626,1662885290.5,2022-09-11 09:34:50.500000
627,1662885290.75,2022-09-11 09:34:50.750000
628,1662885291.0,2022-09-11 09:34:51.000000
629,1662885291.25,2022-09-11 09:34:51.250000
630,1662885291.5,2022-09-11 09:34:51.500000
631,1662885291.75,2022-09-11 09:34:51.750000
632,1662885292.0,2022-09-11 09:34:52.000000
633,1662885292.25,2022-09-11 09:34:52.250000
634,1662885292.5,2022-09-11 09:34:52.500000
635,1662885292.75,2022-09-11 09:34:52.750000
636,1662885293.0,2022-09-11 09:34:53.000000
637,1662885293.25,2022-09-11 09:34:53.250000
638,1662885293.5,2022-09-11 09:34:53.500000
639,1662885293.75,2022-09-11 09:34:53.750000
640,1662885294.0,2022-09-11 09:34:54.000000
641,1662885294.25,2022-09-11 09:34:54.250000
642,1662885294.5,2022-09-11 09:34:54.500000
643,1662885294.75,2022-09-11 09:34:54.750000
644,1662885295.0,2022-09-11 09:34:55.000000
645,1662885295.25,2022-09-11 09:34:55.250000
646,1662885295.5,2022-09-11 09:34:55.500000
647,1662885295.75,2022-09-11 09:34:55.750000
648,1662885296.0,2022-09-11 09:34:56.000000
649,1662885296.25,2022-09-11 09:34:56.250000
650,1662885296.5,2022-09-11 09:34:56.500000
651,1662885296.75,2022-09-11 09:34:56.750000
652,1662885297.0,2022-09-11 09:34:57.000000
653,1662885297.25,2022-09-11 09:34:57.250000
654,1662885297.5,2022-09-11 09:34:57.500000
655,1662885297.75,2022-09-11 09:34:57.750000
656,1662885298.0,2022-09-11 09:34:58.000000
657,1662885298.25,2022-09-11 09:34:58.250000
658,1662885298.5,2022-09-11 09:34:58.500000
659,1662885298.75,2022-09-11 09:34:58.750000
660,1662885299.0,2022-09-11 09:34:59.000000
661,1662885299.25,2022-09-11 09:34:59.250000
662,1662885299.5,2022-09-11 09:34:59.500000
663,1662885299.75,2022-09-11 09:34:59.750000
664,1662885300.0,2022-09-11 09:35:00.000000
665,1662885300.25,2022-09-11 09:35:00.250000
666,1662885300.5,2022-09-11 09:35:00.500000
667,1662885300.75,2022-09-11 09:35:00.750000
668,1662885301.0,2022-09-11 09:35:01.000000
669,1662885301.25,2022-09-11 09:35:01.250000
670,1662885301.5,2022-09-11 09:35:01.500000
671,1662885301.75,2022-09-11 09:35:01.750000
672,1662885302.0,2022-09-11 09:35:02.000000
673,1662885302.25,2022-09-11 09:35:02.250000
674,1662885302.5,2022-09-11 09:35:02.500000
675,1662885302.75,2022-09-11 09:35:02.750000
676,1662885303.0,2022-09-11 09:35:03.000000
677,1662885303.25,2022-09-11 09:35:03.250000
678,1662885303.5,2022-09-11 09:35:03.500000
679,1662885303.75,2022-09-11 09:35:03.750000
680,1662885304.0,2022-09-11 09:35:04.000000
681,1662885304.25,2022-09-11 09:35:04.250000
682,1662885304.5,2022-09-11 09:35:04.500000
683,1662885304.75,2022-09-11 09:35:04.750000
684,1662885305.0,2022-09-11 09:35:05.000000
685,1662885305.25,2022-09-11 09:35:05.250000
686,1662885305.5,2022-09-11 09:35:05.500000
687,1662885305.75,2022-09-11 09:35:05.750000
688,1662885306.0,2022-09-11 09:35:06.000000
689,1662885306.25,2022-09-11 09:35:06.250000
690,1662885306.5,2022-09-11 09:35:06.500000
691,1662885306.75,2022-09-11 09:35:06.750000
692,1662885307.0,2022-09-11 09:35:07.000000
693,1662885307.25,2022-09-11 09:35:07.250000
694,1662885307.5,2022-09-11 09:35:07.500000
695,1662885307.75,2022-09-11 09:35:07.750000
696,1662885308.0,2022-09-11 09:35:08.000000
697,1662885308.25,2022-09-11 09:35:08.250000
698,1662885308.5,2022-09-11 09:35:08.500000
699,1662885308.75,2022-09-11 09:35:08.750000
700,1662885309.0,2022-09-11 09:35:09.000000
701,1662885309.25,2022-09-11 09:35:09.250000
702,1662885309.5,2022-09-11 09:35:09.500000
703,1662885309.75,2022-09-11 09:35:09.750000
704,1662885310.0,2022-09-11 09:35:10.000000
705,1662885310.25,2022-09-11 09:35:10.250000
706,1662885310.5,2022-09-11 09:35:10.500000
707,1662885310.75,2022-09-11 09:35:10.750000
708,1662885311.0,2022-09-11 09:35:11.000000
709,1662885311.25,2022-09-11 09:35:11.250000
710,1662885311.5,2022-09-11 09:35:11.500000
711,1662885311.75,2022-09-11 09:35:11.750000
712,1662885312.0,2022-09-11 09:35:12.000000
713,1662885312.25,2022-09-11 09:35:12.250000
714,1662885312.5,2022-09-11 09:35:12.500000
715,1662885312.75,2022-09-11 09:35:12.750000
716,1662885313.0,2022-09-11 09:35:13.000000
717,1662885313.25,2022-09-11 09:35:13.250000
718,1662885313.5,2022-09-11 09:35:13.500000
719,1662885313.75,2022-09-11 09:35:13.750000
720,1662885314.0,2022-09-11 09:35:14.000000
721,1662885314.25,2022-09-11 09:35:14.250000
722,1662885314.5,2022-09-11 09:35:14.500000
723,1662885314.75,2022-09-11 09:35:14.750000
724,1662885315.0,2022-09-11 09:35:15.000000
725,1662885315.25,2022-09-11 09:35:15.250000
726,1662885315.5,2022-09-11 09:35:15.500000
727,1662885315.75,2022-09-11 09:35:15.750000
728,1662885316.0,2022-09-11 09:35:16.000000
729,1662885316.25,2022-09-11 09:35:16.250000
730,1662885316.5,2022-09-11 09:35:16.500000
731,1662885316.75,2022-09-11 09:35:16.750000
732,1662885317.0,2022-09-11 09:35:17.000000
733,1662885317.25,2022-09-11 09:35:17.250000
734,1662885317.5,2022-09-11 09:35:17.500000
735,1662885317.75,2022-09-11 09:35:17.750000
736,1662885318.0,2022-09-11 09:35:18.000000
737,1662885318.25,2022-09-11 09:35:18.250000
738,1662885318.5,2022-09-11 09:35:18.500000
739,1662885318.75,2022-09-11 09:35:18.750000
740,1662885319.0,2022-09-11 09:35:19.000000
741,1662885319.25,2022-09-11 09:35:19.250000
742,1662885319.5,2022-09-11 09:35:19.500000
743,1662885319.75,2022-09-11 09:35:19.750000
744,1662885320.0,2022-09-11 09:35:20.000000
745,1662885320.25,2022-09-11 09:35:20.250000
746,1662885320.5,2022-09-11 09:35:20.500000
747,1662885320.75,2022-09-11 09:35:20.750000
748,1662885321.0,2022-09-11 09:35:21.000000
749,1662885321.25,2022-09-11 09:35:21.250000
750,1662885321.5,2022-09-11 09:35:21.500000
751,1662885321.75,2022-09-11 09:35:21.750000
752,1662885322.0,2022-09-11 09:35:22.000000
753,1662885322.25,2022-09-11 09:35:22.250000
754,1662885322.5,2022-09-11 09:35:22.500000
755,1662885322.75,2022-09-11 09:35:22.750000
756,1662885323.0,2022-09-11 09:35:23.000000
757,1662885323.25,2022-09-11 09:35:23.250000
758,1662885323.5,2022-09-11 09:35:23.500000
759,1662885323.75,2022-09-11 09:35:23.750000
760,1662885324.0,2022-09-11 09:35:24.000000
761,1662885324.25,2022-09-11 09:35:24.250000
762,1662885324.5,2022-09-11 09:35:24.500000
763,1662885324.75,2022-09-11 09:35:24.750000
764,1662885325.0,2022-09-11 09:35:25.000000
765,1662885325.25,2022-09-11 09:35:25.250000
766,1662885325.5,2022-09-11 09:35:25.500000
767,1662885325.75,2022-09-11 09:35:25.750000
768,1662885326.0,2022-09-11 09:35:26.000000
769,1662885326.25,2022-09-11 09:35:26.250000
770,1662885326.5,2022-09-11 09:35:26.500000
771,1662885326.75,2022-09-11 09:35:26.750000
772,1662885327.0,2022-09-11 09:35:27.000000
773,1662885327.25,2022-09-11 09:35:27.250000
774,1662885327.5,2022-09-11 09:35:27.500000
775,1662885327.75,2022-09-11 09:35:27.750000
776,1662885328.0,2022-09-11 09:35:28.000000
777,1662885328.25,2022-09-11 09:35:28.250000
778,1662885328.5,2022-09-11 09:35:28.500000
779,1662885328.75,2022-09-11 09:35:28.750000
780,1662885329.0,2022-09-11 09:35:29.000000
781,1662885329.25,2022-09-11 09:35:29.250000
782,1662885329.5,2022-09-11 09:35:29.500000
783,1662885329.75,2022-09-11 09:35:29.750000
784,1662885330.0,2022-09-11 09:35:30.000000
785,1662885330.25,2022-09-11 09:35:30.250000
786,1662885330.5,2022-09-11 09:35:30.500000
787,1662885330.75,2022-09-11 09:35:30.750000
788,1662885331.0,2022-09-11 09:35:31.000000
789,1662885331.25,2022-09-11 09:35:31.250000
790,1662885331.5,2022-09-11 09:35:31.500000
791,1662885331.75,2022-09-11 09:35:31.750000
792,1662885332.0,2022-09-11 09:35:32.000000
793,1662885332.25,2022-09-11 09:35:32.250000
794,1662885332.5,2022-09-11 09:35:32.500000
795,1662885332.75,2022-09-11 09:35:32.750000
796,1662885333.0,2022-09-11 09:35:33.000000
797,1662885333.25,2022-09-11 09:35:33.250000
798,1662885333.5,2022-09-11 09:35:33.500000
799,1662885333.75,2022-09-11 09:35:33.750000
800,1662885334.0,2022-09-11 09:35:34.000000
801,1662885334.25,2022-09-11 09:35:34.250000
802,1662885334.5,2022-09-11 09:35:34.500000
803,1662885334.75,2022-09-11 09:35:34.750000
804,1662885335.0,2022-09-11 09:35:35.000000
805,1662885335.25,2022-09-11 09:35:35.250000
806,1662885335.5,2022-09-11 09:35:35.500000
807,1662885335.75,2022-09-11 09:35:35.750000
808,1662885336.0,2022-09-11 09:35:36.000000
809,1662885336.25,2022-09-11 09:35:36.250000
810,1662885336.5,2022-09-11 09:35:36.500000
811,1662885336.75,2022-09-11 09:35:36.750000
812,1662885337.0,2022-09-11 09:35:37.000000
813,1662885337.25,2022-09-11 09:35:37.250000
814,1662885337.5,2022-09-11 09:35:37.500000
815,1662885337.75,2022-09-11 09:35:37.750000
816,1662885338.0,2022-09-11 09:35:38.000000
817,1662885338.25,2022-09-11 09:35:38.250000
818,1662885338.5,2022-09-11 09:35:38.500000
819,1662885338.75,2022-09-11 09:35:38.750000
820,1662885339.0,2022-09-11 09:35:39.000000
821,1662885339.25,2022-09-11 09:35:39.250000
822,1662885339.5,2022-09-11 09:35:39.500000
823,1662885339.75,2022-09-11 09:35:39.750000
824,1662885340.0,2022-09-11 09:35:40.000000
825,1662885340.25,2022-09-11 09:35:40.250000
826,1662885340.5,2022-09-11 09:35:40.500000
827,1662885340.75,2022-09-11 09:35:40.750000
828,1662885341.0,2022-09-11 09:35:41.000000
829,1662885341.25,2022-09-11 09:35:41.250000
830,1662885341.5,2022-09-11 09:35:41.500000
831,1662885341.75,2022-09-11 09:35:41.750000
832,1662885342.0,2022-09-11 09:35:42.000000
833,1662885342.25,2022-09-11 09:35:42.250000
834,1662885342.5,2022-09-11 09:35:42.500000
835,1662885342.75,2022-09-11 09:35:42.750000
836,1662885343.0,2022-09-11 09:35:43.000000
837,1662885343.25,2022-09-11 09:35:43.250000
838,1662885343.5,2022-09-11 09:35:43.500000
839,1662885343.75,2022-09-11 09:35:43.750000
840,1662885344.0,2022-09-11 09:35:44.000000
841,1662885344.25,2022-09-11 09:35:44.250000
842,1662885344.5,2022-09-11 09:35:44.500000
843,1662885344.75,2022-09-11 09:35:44.750000
844,1662885345.0,2022-09-11 09:35:45.000000
845,1662885345.25,2022-09-11 09:35:45.250000
846,1662885345.5,2022-09-11 09:35:45.500000
847,1662885345.75,2022-09-11 09:35:45.750000
848,1662885346.0,2022-09-11 09:35:46.000000
849,1662885346.25,2022-09-11 09:35:46.250000
850,1662885346.5,2022-09-11 09:35:46.500000
851,1662885346.75,2022-09-11 09:35:46.750000
852,1662885347.0,2022-09-11 09:35:47.000000
853,1662885347.25,2022-09-11 09:35:47.250000
854,1662885347.5,2022-09-11 09:35:47.500000
855,1662885347.75,2022-09-11 09:35:47.750000
856,1662885348.0,2022-09-11 09:35:48.000000
857,1662885348.25,2022-09-11 09:35:48.250000
858,1662885348.5,2022-09-11 09:35:48.500000
859,1662885348.75,2022-09-11 09:35:48.750000
860,1662885349.0,2022-09-11 09:35:49.000000
861,1662885349.25,2022-09-11 09:35:49.250000
862,1662885349.5,2022-09-11 09:35:49.500000
863,1662885349.75,2022-09-11 09:35:49.750000
864,1662885350.0,2022-09-11 09:35:50.000000
865,1662885350.25,2022-09-11 09:35:50.250000
866,1662885350.5,2022-09-11 09:35:50.500000
867,1662885350.75,2022-09-11 09:35:50.750000
868,1662885351.0,2022-09-11 09:35:51.000000
869,1662885351.25,2022-09-11 09:35:51.250000
870,1662885351.5,2022-09-11 09:35:51.500000
871,1662885351.75,2022-09-11 09:35:51.750000
872,1662885352.0,2022-09-11 09:35:52.000000
873,1662885352.25,2022-09-11 09:35:52.250000
874,1662885352.5,2022-09-11 09:35:52.500000
875,1662885352.75,2022-09-11 09:35:52.750000
876,1662885353.0,2022-09-11 09:35:53.000000
877,1662885353.25,2022-09-11 09:35:53.250000
878,1662885353.5,2022-09-11 09:35:53.500000
879,1662885353.75,2022-09-11 09:35:53.750000
880,1662885354.0,2022-09-11 09:35:54.000000
881,1662885354.25,2022-09-11 09:35:54.250000
882,1662885354.5,2022-09-11 09:35:54.500000
883,1662885354.75,2022-09-11 09:35:54.750000
884,1662885355.0,2022-09-11 09:35:55.000000
885,1662885355.25,2022-09-11 09:35:55.250000
886,1662885355.5,2022-09-11 09:35:55.500000
887,1662885355.75,2022-09-11 09:35:55.750000
888,1662885356.0,2022-09-11 09:35:56.000000
889,1662885356.25,2022-09-11 09:35:56.250000
890,1662885356.5,2022-09-11 09:35:56.500000
891,1662885356.75,2022-09-11 09:35:56.750000
892,1662885357.0,2022-09-11 09:35:57.000000
893,1662885357.25,2022-09-11 09:35:57.250000
894,1662885357.5,2022-09-11 09:35:57.500000
895,1662885357.75,2022-09-11 09:35:57.750000
896,1662885358.0,2022-09-11 09:35:58.000000
897,1662885358.25,2022-09-11 09:35:58.250000
898,1662885358.5,2022-09-11 09:35:58.500000
899,1662885358.75,2022-09-11 09:35:58.750000
900,1662885359.0,2022-09-11 09:35:59.000000
901,1662885359.25,2022-09-11 09:35:59.250000
902,1662885359.5,2022-09-11 09:35:59.500000
903,1662885359.75,2022-09-11 09:35:59.750000
904,1662885360.0,2022-09-11 09:36:00.000000
905,1662885360.25,2022-09-11 09:36:00.250000
906,1662885360.5,2022-09-11 09:36:00.500000
907,1662885360.75,2022-09-11 09:36:00.750000
908,1662885361.0,2022-09-11 09:36:01.000000
909,1662885361.25,2022-09-11 09:36:01.250000
910,1662885361.5,2022-09-11 09:36:01.500000
911,1662885361.75,2022-09-11 09:36:01.750000
912,1662885362.0,2022-09-11 09:36:02.000000
913,1662885362.25,2022-09-11 09:36:02.250000
914,1662885362.5,2022-09-11 09:36:02.500000
915,1662885362.75,2022-09-11 09:36:02.750000
916,1662885363.0,2022-09-11 09:36:03.000000
917,1662885363.25,2022-09-11 09:36:03.250000
918,1662885363.5,2022-09-11 09:36:03.500000
919,1662885363.75,2022-09-11 09:36:03.750000
920,1662885364.0,2022-09-11 09:36:04.000000
921,1662885364.25,2022-09-11 09:36:04.250000
922,1662885364.5,2022-09-11 09:36:04.500000
923,1662885364.75,2022-09-11 09:36:04.750000
924,1662885365.0,2022-09-11 09:36:05.000000
925,1662885365.25,2022-09-11 09:36:05.250000
926,1662885365.5,2022-09-11 09:36:05.500000
927,1662885365.75,2022-09-11 09:36:05.750000
928,1662885366.0,2022-09-11 09:36:06.000000
929,1662885366.25,2022-09-11 09:36:06.250000
930,1662885366.5,2022-09-11 09:36:06.500000
931,1662885366.75,2022-09-11 09:36:06.750000
932,1662885367.0,2022-09-11 09:36:07.000000
933,1662885367.25,2022-09-11 09:36:07.250000
934,1662885367.5,2022-09-11 09:36:07.500000
935,1662885367.75,2022-09-11 09:36:07.750000
936,1662885368.0,2022-09-11 09:36:08.000000
937,1662885368.25,2022-09-11 09:36:08.250000
938,1662885368.5,2022-09-11 09:36:08.500000
939,1662885368.75,2022-09-11 09:36:08.750000
940,1662885369.0,2022-09-11 09:36:09.000000
941,1662885369.25,2022-09-11 09:36:09.250000
942,1662885369.5,2022-09-11 09:36:09.500000
943,1662885369.75,2022-09-11 09:36:09.750000
944,1662885370.0,2022-09-11 09:36:10.000000
945,1662885370.25,2022-09-11 09:36:10.250000
946,1662885370.5,2022-09-11 09:36:10.500000
947,1662885370.75,2022-09-11 09:36:10.750000
948,1662885371.0,2022-09-11 09:36:11.000000
949,1662885371.25,2022-09-11 09:36:11.250000
950,1662885371.5,2022-09-11 09:36:11.500000
951,1662885371.75,2022-09-11 09:36:11.750000
952,1662885372.0,2022-09-11 09:36:12.000000
953,1662885372.25,2022-09-11 09:36:12.250000
954,1662885372.5,2022-09-11 09:36:12.500000
955,1662885372.75,2022-09-11 09:36:12.750000
956,1662885373.0,2022-09-11 09:36:13.000000
957,1662885373.25,2022-09-11 09:36:13.250000
958,1662885373.5,2022-09-11 09:36:13.500000
959,1662885373.75,2022-09-11 09:36:13.750000
960,1662885374.0,2022-09-11 09:36:14.000000
961,1662885374.25,2022-09-11 09:36:14.250000
962,1662885374.5,2022-09-11 09:36:14.500000
963,1662885374.75,2022-09-11 09:36:14.750000
964,1662885375.0,2022-09-11 09:36:15.000000
965,1662885375.25,2022-09-11 09:36:15.250000
966,1662885375.5,2022-09-11 09:36:15.500000
967,1662885375.75,2022-09-11 09:36:15.750000
968,1662885376.0,2022-09-11 09:36:16.000000
969,1662885376.25,2022-09-11 09:36:16.250000
970,1662885376.5,2022-09-11 09:36:16.500000
971,1662885376.75,2022-09-11 09:36:16.750000
972,1662885377.0,2022-09-11 09:36:17.000000
973,1662885377.25,2022-09-11 09:36:17.250000
974,1662885377.5,2022-09-11 09:36:17.500000
975,1662885377.75,2022-09-11 09:36:17.750000
976,1662885378.0,2022-09-11 09:36:18.000000
977,1662885378.25,2022-09-11 09:36:18.250000
978,1662885378.5,2022-09-11 09:36:18.500000
979,1662885378.75,2022-09-11 09:36:18.750000
980,1662885379.0,2022-09-11 09:36:19.000000
981,1662885379.25,2022-09-11 09:36:19.250000
982,1662885379.5,2022-09-11 09:36:19.500000
983,1662885379.75,2022-09-11 09:36:19.750000
984,1662885380.0,2022-09-11 09:36:20.000000
985,1662885380.25,2022-09-11 09:36:20.250000
986,1662885380.5,2022-09-11 09:36:20.500000
987,1662885380.75,2022-09-11 09:36:20.750000
988,1662885381.0,2022-09-11 09:36:21.000000
989,1662885381.25,2022-09-11 09:36:21.250000
990,1662885381.5,2022-09-11 09:36:21.500000
991,1662885381.75,2022-09-11 09:36:21.750000
992,1662885382.0,2022-09-11 09:36:22.000000
993,1662885382.25,2022-09-11 09:36:22.250000
994,1662885382.5,2022-09-11 09:36:22.500000
995,1662885382.75,2022-09-11 09:36:22.750000
996,1662885383.0,2022-09-11 09:36:23.000000
997,1662885383.25,2022-09-11 09:36:23.250000
998,1662885383.5,2022-09-11 09:36:23.500000
999,1662885383.75,2022-09-11 09:36:23.750000
1000,1662885384.0,2022-09-11 09:36:24.000000
1001,1662885384.25,2022-09-11 09:36:24.250000
1002,1662885384.5,2022-09-11 09:36:24.500000
1003,1662885384.75,2022-09-11 09:36:24.750000
1004,1662885385.0,2022-09-11 09:36:25.000000
1005,1662885385.25,2022-09-11 09:36:25.250000
1006,1662885385.5,2022-09-11 09:36:25.500000
1007,1662885385.75,2022-09-11 09:36:25.750000
1008,1662885386.0,2022-09-11 09:36:26.000000
1009,1662885386.25,2022-09-11 09:36:26.250000
1010,1662885386.5,2022-09-11 09:36:26.500000
1011,1662885386.75,2022-09-11 09:36:26.750000
1012,1662885387.0,2022-09-11 09:36:27.000000
1013,1662885387.25,2022-09-11 09:36:27.250000
1014,1662885387.5,2022-09-11 09:36:27.500000
1015,1662885387.75,2022-09-11 09:36:27.750000
1016,1662885388.0,2022-09-11 09:36:28.000000
1017,1662885388.25,2022-09-11 09:36:28.250000
1018,1662885388.5,2022-09-11 09:36:28.500000
1019,1662885388.75,2022-09-11 09:36:28.750000
1020,1662885389.0,2022-09-11 09:36:29.000000
1021,1662885389.25,2022-09-11 09:36:29.250000
1022,1662885389.5,2022-09-11 09:36:29.500000
1023,1662885389.75,2022-09-11 09:36:29.750000
1024,1662885390.0,2022-09-11 09:36:30.000000
1025,1662885390.25,2022-09-11 09:36:30.250000
1026,1662885390.5,2022-09-11 09:36:30.500000
1027,1662885390.75,2022-09-11 09:36:30.750000
1028,1662885391.0,2022-09-11 09:36:31.000000
1029,1662885391.25,2022-09-11 09:36:31.250000
1030,1662885391.5,2022-09-11 09:36:31.500000
1031,1662885391.75,2022-09-11 09:36:31.750000
1032,1662885392.0,2022-09-11 09:36:32.000000
1033,1662885392.25,2022-09-11 09:36:32.250000
1034,1662885392.5,2022-09-11 09:36:32.500000
1035,1662885392.75,2022-09-11 09:36:32.750000
1036,1662885393.0,2022-09-11 09:36:33.000000
1037,1662885393.25,2022-09-11 09:36:33.250000
1038,1662885393.5,2022-09-11 09:36:33.500000
1039,1662885393.75,2022-09-11 09:36:33.750000
1040,1662885394.0,2022-09-11 09:36:34.000000
1041,1662885394.25,2022-09-11 09:36:34.250000
1042,1662885394.5,2022-09-11 09:36:34.500000
1043,1662885394.75,2022-09-11 09:36:34.750000
1044,1662885395.0,2022-09-11 09:36:35.000000
1045,1662885395.25,2022-09-11 09:36:35.250000
1046,1662885395.5,2022-09-11 09:36:35.500000
1047,1662885395.75,2022-09-11 09:36:35.750000
1048,1662885396.0,2022-09-11 09:36:36.000000
1051,1662885396.75,2022-09-11 09:36:36.750000
1053,1662885397.25,2022-09-11 09:36:37.250000
1055,1662885397.75,2022-09-11 09:36:37.750000
1056,1662885398.0,2022-09-11 09:36:38.000000
1057,1662885398.25,2022-09-11 09:36:38.250000
1058,1662885398.5,2022-09-11 09:36:38.500000
1059,1662885398.75,2022-09-11 09:36:38.750000
1060,1662885399.0,2022-09-11 09:36:39.000000
1061,1662885399.25,2022-09-11 09:36:39.250000
1062,1662885399.5,2022-09-11 09:36:39.500000
1063,1662885399.75,2022-09-11 09:36:39.750000
1064,1662885400.0,2022-09-11 09:36:40.000000
1065,1662885400.25,2022-09-11 09:36:40.250000
1066,1662885400.5,2022-09-11 09:36:40.500000
1067,1662885400.75,2022-09-11 09:36:40.750000
1068,1662885401.0,2022-09-11 09:36:41.000000
1069,1662885401.25,2022-09-11 09:36:41.250000
1070,1662885401.5,2022-09-11 09:36:41.500000
1071,1662885401.75,2022-09-11 09:36:41.750000
1072,1662885402.0,2022-09-11 09:36:42.000000
1073,1662885402.25,2022-09-11 09:36:42.250000
1074,1662885402.5,2022-09-11 09:36:42.500000
1075,1662885402.75,2022-09-11 09:36:42.750000
1076,1662885403.0,2022-09-11 09:36:43.000000
1077,1662885403.25,2022-09-11 09:36:43.250000
1078,1662885403.5,2022-09-11 09:36:43.500000
1079,1662885403.75,2022-09-11 09:36:43.750000
1080,1662885404.0,2022-09-11 09:36:44.000000
1081,1662885404.25,2022-09-11 09:36:44.250000
1082,1662885404.5,2022-09-11 09:36:44.500000
1083,1662885404.75,2022-09-11 09:36:44.750000
1084,1662885405.0,2022-09-11 09:36:45.000000
1085,1662885405.25,2022-09-11 09:36:45.250000
1086,1662885405.5,2022-09-11 09:36:45.500000
1087,1662885405.75,2022-09-11 09:36:45.750000
1088,1662885406.0,2022-09-11 09:36:46.000000
1089,1662885406.25,2022-09-11 09:36:46.250000
1090,1662885406.5,2022-09-11 09:36:46.500000
1091,1662885406.75,2022-09-11 09:36:46.750000
1092,1662885407.0,2022-09-11 09:36:47.000000
1093,1662885407.25,2022-09-11 09:36:47.250000
1094,1662885407.5,2022-09-11 09:36:47.500000
1095,1662885407.75,2022-09-11 09:36:47.750000
1096,1662885408.0,2022-09-11 09:36:48.000000
1097,1662885408.25,2022-09-11 09:36:48.250000
1098,1662885408.5,2022-09-11 09:36:48.500000
1099,1662885408.75,2022-09-11 09:36:48.750000
1100,1662885409.0,2022-09-11 09:36:49.000000
1101,1662885409.25,2022-09-11 09:36:49.250000
1102,1662885409.5,2022-09-11 09:36:49.500000
1103,1662885409.75,2022-09-11 09:36:49.750000
1104,1662885410.0,2022-09-11 09:36:50.000000
1105,1662885410.25,2022-09-11 09:36:50.250000
1106,1662885410.5,2022-09-11 09:36:50.500000
1107,1662885410.75,2022-09-11 09:36:50.750000
1108,1662885411.0,2022-09-11 09:36:51.000000
1109,1662885411.25,2022-09-11 09:36:51.250000
1110,1662885411.5,2022-09-11 09:36:51.500000
1111,1662885411.75,2022-09-11 09:36:51.750000
1112,1662885412.0,2022-09-11 09:36:52.000000
1113,1662885412.25,2022-09-11 09:36:52.250000
1114,1662885412.5,2022-09-11 09:36:52.500000
1115,1662885412.75,2022-09-11 09:36:52.750000
1116,1662885413.0,2022-09-11 09:36:53.000000
1117,1662885413.25,2022-09-11 09:36:53.250000
1118,1662885413.5,2022-09-11 09:36:53.500000
1119,1662885413.75,2022-09-11 09:36:53.750000
1120,1662885414.0,2022-09-11 09:36:54.000000
1121,1662885414.25,2022-09-11 09:36:54.250000
1122,1662885414.5,2022-09-11 09:36:54.500000
1123,1662885414.75,2022-09-11 09:36:54.750000
1124,1662885415.0,2022-09-11 09:36:55.000000
1125,1662885415.25,2022-09-11 09:36:55.250000
1126,1662885415.5,2022-09-11 09:36:55.500000
1127,1662885415.75,2022-09-11 09:36:55.750000
1128,1662885416.0,2022-09-11 09:36:56.000000
1129,1662885416.25,2022-09-11 09:36:56.250000
1130,1662885416.5,2022-09-11 09:36:56.500000
1131,1662885416.75,2022-09-11 09:36:56.750000
1132,1662885417.0,2022-09-11 09:36:57.000000
1133,1662885417.25,2022-09-11 09:36:57.250000
1134,1662885417.5,2022-09-11 09:36:57.500000
1135,1662885417.75,2022-09-11 09:36:57.750000
1136,1662885418.0,2022-09-11 09:36:58.000000
1137,1662885418.25,2022-09-11 09:36:58.250000
1138,1662885418.5,2022-09-11 09:36:58.500000
1139,1662885418.75,2022-09-11 09:36:58.750000
1140,1662885419.0,2022-09-11 09:36:59.000000
1141,1662885419.25,2022-09-11 09:36:59.250000
1142,1662885419.5,2022-09-11 09:36:59.500000
1143,1662885419.75,2022-09-11 09:36:59.750000
1144,1662885420.0,2022-09-11 09:37:00.000000
1145,1662885420.25,2022-09-11 09:37:00.250000
1146,1662885420.5,2022-09-11 09:37:00.500000
1147,1662885420.75,2022-09-11 09:37:00.750000
1148,1662885421.0,2022-09-11 09:37:01.000000
1149,1662885421.25,2022-09-11 09:37:01.250000
1150,1662885421.5,2022-09-11 09:37:01.500000
1151,1662885421.75,2022-09-11 09:37:01.750000
1152,1662885422.0,2022-09-11 09:37:02.000000
1153,1662885422.25,2022-09-11 09:37:02.250000
1154,1662885422.5,2022-09-11 09:37:02.500000
1155,1662885422.75,2022-09-11 09:37:02.750000
1156,1662885423.0,2022-09-11 09:37:03.000000
1157,1662885423.25,2022-09-11 09:37:03.250000
1158,1662885423.5,2022-09-11 09:37:03.500000
1159,1662885423.75,2022-09-11 09:37:03.750000
1160,1662885424.0,2022-09-11 09:37:04.000000
1161,1662885424.25,2022-09-11 09:37:04.250000
1162,1662885424.5,2022-09-11 09:37:04.500000
1163,1662885424.75,2022-09-11 09:37:04.750000
1164,1662885425.0,2022-09-11 09:37:05.000000
1165,1662885425.25,2022-09-11 09:37:05.250000
1166,1662885425.5,2022-09-11 09:37:05.500000
1167,1662885425.75,2022-09-11 09:37:05.750000
1168,1662885426.0,2022-09-11 09:37:06.000000
1169,1662885426.25,2022-09-11 09:37:06.250000
1170,1662885426.5,2022-09-11 09:37:06.500000
1171,1662885426.75,2022-09-11 09:37:06.750000
1172,1662885427.0,2022-09-11 09:37:07.000000
1173,1662885427.25,2022-09-11 09:37:07.250000
1174,1662885427.5,2022-09-11 09:37:07.500000
1175,1662885427.75,2022-09-11 09:37:07.750000
1176,1662885428.0,2022-09-11 09:37:08.000000
1177,1662885428.25,2022-09-11 09:37:08.250000
1178,1662885428.5,2022-09-11 09:37:08.500000
1179,1662885428.75,2022-09-11 09:37:08.750000
1180,1662885429.0,2022-09-11 09:37:09.000000
1181,1662885429.25,2022-09-11 09:37:09.250000
1182,1662885429.5,2022-09-11 09:37:09.500000
1183,1662885429.75,2022-09-11 09:37:09.750000
1184,1662885430.0,2022-09-11 09:37:10.000000
1185,1662885430.25,2022-09-11 09:37:10.250000
1186,1662885430.5,2022-09-11 09:37:10.500000
1187,1662885430.75,2022-09-11 09:37:10.750000
1188,1662885431.0,2022-09-11 09:37:11.000000
1189,1662885431.25,2022-09-11 09:37:11.250000
1190,1662885431.5,2022-09-11 09:37:11.500000
1191,1662885431.75,2022-09-11 09:37:11.750000
1192,1662885432.0,2022-09-11 09:37:12.000000
1193,1662885432.25,2022-09-11 09:37:12.250000
1194,1662885432.5,2022-09-11 09:37:12.500000
1195,1662885432.75,2022-09-11 09:37:12.750000
1196,1662885433.0,2022-09-11 09:37:13.000000
1197,1662885433.25,2022-09-11 09:37:13.250000
1198,1662885433.5,2022-09-11 09:37:13.500000
1199,1662885433.75,2022-09-11 09:37:13.750000
1200,1662885434.0,2022-09-11 09:37:14.000000
1201,1662885434.25,2022-09-11 09:37:14.250000
1202,1662885434.5,2022-09-11 09:37:14.500000
1203,1662885434.75,2022-09-11 09:37:14.750000
1204,1662885435.0,2022-09-11 09:37:15.000000
1205,1662885435.25,2022-09-11 09:37:15.250000
1206,1662885435.5,2022-09-11 09:37:15.500000
1207,1662885435.75,2022-09-11 09:37:15.750000
1208,1662885436.0,2022-09-11 09:37:16.000000
1209,1662885436.25,2022-09-11 09:37:16.250000
1210,1662885436.5,2022-09-11 09:37:16.500000
1211,1662885436.75,2022-09-11 09:37:16.750000
1212,1662885437.0,2022-09-11 09:37:17.000000
1213,1662885437.25,2022-09-11 09:37:17.250000
1214,1662885437.5,2022-09-11 09:37:17.500000
1215,1662885437.75,2022-09-11 09:37:17.750000
1216,1662885438.0,2022-09-11 09:37:18.000000
1217,1662885438.25,2022-09-11 09:37:18.250000
1218,1662885438.5,2022-09-11 09:37:18.500000
1219,1662885438.75,2022-09-11 09:37:18.750000
1220,1662885439.0,2022-09-11 09:37:19.000000
1221,1662885439.25,2022-09-11 09:37:19.250000
1222,1662885439.5,2022-09-11 09:37:19.500000
1223,1662885439.75,2022-09-11 09:37:19.750000
1224,1662885440.0,2022-09-11 09:37:20.000000
1225,1662885440.25,2022-09-11 09:37:20.250000
1226,1662885440.5,2022-09-11 09:37:20.500000
1227,1662885440.75,2022-09-11 09:37:20.750000
1228,1662885441.0,2022-09-11 09:37:21.000000
1229,1662885441.25,2022-09-11 09:37:21.250000
1230,1662885441.5,2022-09-11 09:37:21.500000
1231,1662885441.75,2022-09-11 09:37:21.750000
1232,1662885442.0,2022-09-11 09:37:22.000000
1233,1662885442.25,2022-09-11 09:37:22.250000
1234,1662885442.5,2022-09-11 09:37:22.500000
1235,1662885442.75,2022-09-11 09:37:22.750000
1236,1662885443.0,2022-09-11 09:37:23.000000
1237,1662885443.25,2022-09-11 09:37:23.250000
1238,1662885443.5,2022-09-11 09:37:23.500000
1239,1662885443.75,2022-09-11 09:37:23.750000
1240,1662885444.0,2022-09-11 09:37:24.000000
1241,1662885444.25,2022-09-11 09:37:24.250000
1242,1662885444.5,2022-09-11 09:37:24.500000
1243,1662885444.75,2022-09-11 09:37:24.750000
1244,1662885445.0,2022-09-11 09:37:25.000000
1245,1662885445.25,2022-09-11 09:37:25.250000
1246,1662885445.5,2022-09-11 09:37:25.500000
1247,1662885445.75,2022-09-11 09:37:25.750000
1248,1662885446.0,2022-09-11 09:37:26.000000
1249,1662885446.25,2022-09-11 09:37:26.250000
1250,1662885446.5,2022-09-11 09:37:26.500000
1251,1662885446.75,2022-09-11 09:37:26.750000
1252,1662885447.0,2022-09-11 09:37:27.000000
1253,1662885447.25,2022-09-11 09:37:27.250000
1254,1662885447.5,2022-09-11 09:37:27.500000
1255,1662885447.75,2022-09-11 09:37:27.750000
1256,1662885448.0,2022-09-11 09:37:28.000000
1257,1662885448.25,2022-09-11 09:37:28.250000
1258,1662885448.5,2022-09-11 09:37:28.500000
1259,1662885448.75,2022-09-11 09:37:28.750000
1260,1662885449.0,2022-09-11 09:37:29.000000
1261,1662885449.25,2022-09-11 09:37:29.250000
1262,1662885449.5,2022-09-11 09:37:29.500000
1263,1662885449.75,2022-09-11 09:37:29.750000
1264,1662885450.0,2022-09-11 09:37:30.000000
1265,1662885450.25,2022-09-11 09:37:30.250000
1266,1662885450.5,2022-09-11 09:37:30.500000
1267,1662885450.75,2022-09-11 09:37:30.750000
1268,1662885451.0,2022-09-11 09:37:31.000000
1269,1662885451.25,2022-09-11 09:37:31.250000
1270,1662885451.5,2022-09-11 09:37:31.500000
1271,1662885451.75,2022-09-11 09:37:31.750000
1272,1662885452.0,2022-09-11 09:37:32.000000
1273,1662885452.25,2022-09-11 09:37:32.250000
1274,1662885452.5,2022-09-11 09:37:32.500000
1275,1662885452.75,2022-09-11 09:37:32.750000
1276,1662885453.0,2022-09-11 09:37:33.000000
1277,1662885453.25,2022-09-11 09:37:33.250000
1278,1662885453.5,2022-09-11 09:37:33.500000
1279,1662885453.75,2022-09-11 09:37:33.750000
1280,1662885454.0,2022-09-11 09:37:34.000000
1281,1662885454.25,2022-09-11 09:37:34.250000
1282,1662885454.5,2022-09-11 09:37:34.500000
1283,1662885454.75,2022-09-11 09:37:34.750000
1284,1662885455.0,2022-09-11 09:37:35.000000
1285,1662885455.25,2022-09-11 09:37:35.250000
1286,1662885455.5,2022-09-11 09:37:35.500000
1287,1662885455.75,2022-09-11 09:37:35.750000
1288,1662885456.0,2022-09-11 09:37:36.000000
1289,1662885456.25,2022-09-11 09:37:36.250000
1290,1662885456.5,2022-09-11 09:37:36.500000
1291,1662885456.75,2022-09-11 09:37:36.750000
1292,1662885457.0,2022-09-11 09:37:37.000000
1293,1662885457.25,2022-09-11 09:37:37.250000
1294,1662885457.5,2022-09-11 09:37:37.500000
1295,1662885457.75,2022-09-11 09:37:37.750000
1296,1662885458.0,2022-09-11 09:37:38.000000
1297,1662885458.25,2022-09-11 09:37:38.250000
1298,1662885458.5,2022-09-11 09:37:38.500000
1299,1662885458.75,2022-09-11 09:37:38.750000
1300,1662885459.0,2022-09-11 09:37:39.000000
1301,1662885459.25,2022-09-11 09:37:39.250000
1302,1662885459.5,2022-09-11 09:37:39.500000
1303,1662885459.75,2022-09-11 09:37:39.750000
1304,1662885460.0,2022-09-11 09:37:40.000000
1305,1662885460.25,2022-09-11 09:37:40.250000
1306,1662885460.5,2022-09-11 09:37:40.500000
1307,1662885460.75,2022-09-11 09:37:40.750000
1308,1662885461.0,2022-09-11 09:37:41.000000
1309,1662885461.25,2022-09-11 09:37:41.250000
1310,1662885461.5,2022-09-11 09:37:41.500000
1311,1662885461.75,2022-09-11 09:37:41.750000
1312,1662885462.0,2022-09-11 09:37:42.000000
1313,1662885462.25,2022-09-11 09:37:42.250000
1314,1662885462.5,2022-09-11 09:37:42.500000
1315,1662885462.75,2022-09-11 09:37:42.750000
1316,1662885463.0,2022-09-11 09:37:43.000000
1317,1662885463.25,2022-09-11 09:37:43.250000
1318,1662885463.5,2022-09-11 09:37:43.500000
1319,1662885463.75,2022-09-11 09:37:43.750000
1320,1662885464.0,2022-09-11 09:37:44.000000
1321,1662885464.25,2022-09-11 09:37:44.250000
1322,1662885464.5,2022-09-11 09:37:44.500000
1323,1662885464.75,2022-09-11 09:37:44.750000
1324,1662885465.0,2022-09-11 09:37:45.000000
1325,1662885465.25,2022-09-11 09:37:45.250000
1326,1662885465.5,2022-09-11 09:37:45.500000
1327,1662885465.75,2022-09-11 09:37:45.750000
1328,1662885466.0,2022-09-11 09:37:46.000000
1329,1662885466.25,2022-09-11 09:37:46.250000
1330,1662885466.5,2022-09-11 09:37:46.500000
1331,1662885466.75,2022-09-11 09:37:46.750000
1332,1662885467.0,2022-09-11 09:37:47.000000
1333,1662885467.25,2022-09-11 09:37:47.250000
1334,1662885467.5,2022-09-11 09:37:47.500000
1335,1662885467.75,2022-09-11 09:37:47.750000
1336,1662885468.0,2022-09-11 09:37:48.000000
1337,1662885468.25,2022-09-11 09:37:48.250000
1338,1662885468.5,2022-09-11 09:37:48.500000
1339,1662885468.75,2022-09-11 09:37:48.750000
1340,1662885469.0,2022-09-11 09:37:49.000000
1341,1662885469.25,2022-09-11 09:37:49.250000
1342,1662885469.5,2022-09-11 09:37:49.500000
1343,1662885469.75,2022-09-11 09:37:49.750000
1344,1662885470.0,2022-09-11 09:37:50.000000
1345,1662885470.25,2022-09-11 09:37:50.250000
1346,1662885470.5,2022-09-11 09:37:50.500000
1347,1662885470.75,2022-09-11 09:37:50.750000
1348,1662885471.0,2022-09-11 09:37:51.000000
1349,1662885471.25,2022-09-11 09:37:51.250000
1350,1662885471.5,2022-09-11 09:37:51.500000
1351,1662885471.75,2022-09-11 09:37:51.750000
1352,1662885472.0,2022-09-11 09:37:52.000000
1353,1662885472.25,2022-09-11 09:37:52.250000
1354,1662885472.5,2022-09-11 09:37:52.500000
1355,1662885472.75,2022-09-11 09:37:52.750000
1356,1662885473.0,2022-09-11 09:37:53.000000
1357,1662885473.25,2022-09-11 09:37:53.250000
1358,1662885473.5,2022-09-11 09:37:53.500000
1359,1662885473.75,2022-09-11 09:37:53.750000
1360,1662885474.0,2022-09-11 09:37:54.000000
1361,1662885474.25,2022-09-11 09:37:54.250000
1362,1662885474.5,2022-09-11 09:37:54.500000
1363,1662885474.75,2022-09-11 09:37:54.750000
1364,1662885475.0,2022-09-11 09:37:55.000000
1365,1662885475.25,2022-09-11 09:37:55.250000
1366,1662885475.5,2022-09-11 09:37:55.500000
1367,1662885475.75,2022-09-11 09:37:55.750000
1368,1662885476.0,2022-09-11 09:37:56.000000
1369,1662885476.25,2022-09-11 09:37:56.250000
1370,1662885476.5,2022-09-11 09:37:56.500000
1371,1662885476.75,2022-09-11 09:37:56.750000
1372,1662885477.0,2022-09-11 09:37:57.000000
1373,1662885477.25,2022-09-11 09:37:57.250000
1374,1662885477.5,2022-09-11 09:37:57.500000
1375,1662885477.75,2022-09-11 09:37:57.750000
1376,1662885478.0,2022-09-11 09:37:58.000000
1377,1662885478.25,2022-09-11 09:37:58.250000
1378,1662885478.5,2022-09-11 09:37:58.500000
1379,1662885478.75,2022-09-11 09:37:58.750000
1380,1662885479.0,2022-09-11 09:37:59.000000
1381,1662885479.25,2022-09-11 09:37:59.250000
1382,1662885479.5,2022-09-11 09:37:59.500000
1383,1662885479.75,2022-09-11 09:37:59.750000
1384,1662885480.0,2022-09-11 09:38:00.000000
1385,1662885480.25,2022-09-11 09:38:00.250000
1386,1662885480.5,2022-09-11 09:38:00.500000
1387,1662885480.75,2022-09-11 09:38:00.750000
1388,1662885481.0,2022-09-11 09:38:01.000000
1389,1662885481.25,2022-09-11 09:38:01.250000
1390,1662885481.5,2022-09-11 09:38:01.500000
1391,1662885481.75,2022-09-11 09:38:01.750000
1392,1662885482.0,2022-09-11 09:38:02.000000
1393,1662885482.25,2022-09-11 09:38:02.250000
1394,1662885482.5,2022-09-11 09:38:02.500000
1395,1662885482.75,2022-09-11 09:38:02.750000
1396,1662885483.0,2022-09-11 09:38:03.000000
1397,1662885483.25,2022-09-11 09:38:03.250000
1398,1662885483.5,2022-09-11 09:38:03.500000
1399,1662885483.75,2022-09-11 09:38:03.750000
1400,1662885484.0,2022-09-11 09:38:04.000000
1401,1662885484.25,2022-09-11 09:38:04.250000
1402,1662885484.5,2022-09-11 09:38:04.500000
1403,1662885484.75,2022-09-11 09:38:04.750000
1404,1662885485.0,2022-09-11 09:38:05.000000
1405,1662885485.25,2022-09-11 09:38:05.250000
1406,1662885485.5,2022-09-11 09:38:05.500000
1407,1662885485.75,2022-09-11 09:38:05.750000
1408,1662885486.0,2022-09-11 09:38:06.000000
1409,1662885486.25,2022-09-11 09:38:06.250000
1410,1662885486.5,2022-09-11 09:38:06.500000
1411,1662885486.75,2022-09-11 09:38:06.750000
1412,1662885487.0,2022-09-11 09:38:07.000000
1413,1662885487.25,2022-09-11 09:38:07.250000
1414,1662885487.5,2022-09-11 09:38:07.500000
1415,1662885487.75,2022-09-11 09:38:07.750000
1416,1662885488.0,2022-09-11 09:38:08.000000
1417,1662885488.25,2022-09-11 09:38:08.250000
1418,1662885488.5,2022-09-11 09:38:08.500000
1419,1662885488.75,2022-09-11 09:38:08.750000
1420,1662885489.0,2022-09-11 09:38:09.000000
1421,1662885489.25,2022-09-11 09:38:09.250000
1422,1662885489.5,2022-09-11 09:38:09.500000
1423,1662885489.75,2022-09-11 09:38:09.750000
1424,1662885490.0,2022-09-11 09:38:10.000000
1425,1662885490.25,2022-09-11 09:38:10.250000
1426,1662885490.5,2022-09-11 09:38:10.500000
1427,1662885490.75,2022-09-11 09:38:10.750000
1428,1662885491.0,2022-09-11 09:38:11.000000
1429,1662885491.25,2022-09-11 09:38:11.250000
1430,1662885491.5,2022-09-11 09:38:11.500000
1431,1662885491.75,2022-09-11 09:38:11.750000
1432,1662885492.0,2022-09-11 09:38:12.000000
1433,1662885492.25,2022-09-11 09:38:12.250000
1434,1662885492.5,2022-09-11 09:38:12.500000
1435,1662885492.75,2022-09-11 09:38:12.750000
1436,1662885493.0,2022-09-11 09:38:13.000000
1437,1662885493.25,2022-09-11 09:38:13.250000
1438,1662885493.5,2022-09-11 09:38:13.500000
1439,1662885493.75,2022-09-11 09:38:13.750000
1440,1662885494.0,2022-09-11 09:38:14.000000
1441,1662885494.25,2022-09-11 09:38:14.250000
1442,1662885494.5,2022-09-11 09:38:14.500000
1443,1662885494.75,2022-09-11 09:38:14.750000
1444,1662885495.0,2022-09-11 09:38:15.000000
1445,1662885495.25,2022-09-11 09:38:15.250000
1446,1662885495.5,2022-09-11 09:38:15.500000
1447,1662885495.75,2022-09-11 09:38:15.750000
1448,1662885496.0,2022-09-11 09:38:16.000000
1449,1662885496.25,2022-09-11 09:38:16.250000
1450,1662885496.5,2022-09-11 09:38:16.500000
1451,1662885496.75,2022-09-11 09:38:16.750000
1452,1662885497.0,2022-09-11 09:38:17.000000
1453,1662885497.25,2022-09-11 09:38:17.250000
1454,1662885497.5,2022-09-11 09:38:17.500000
1455,1662885497.75,2022-09-11 09:38:17.750000
1456,1662885498.0,2022-09-11 09:38:18.000000
1457,1662885498.25,2022-09-11 09:38:18.250000
1458,1662885498.5,2022-09-11 09:38:18.500000
1459,1662885498.75,2022-09-11 09:38:18.750000
1460,1662885499.0,2022-09-11 09:38:19.000000
1461,1662885499.25,2022-09-11 09:38:19.250000
1462,1662885499.5,2022-09-11 09:38:19.500000
1463,1662885499.75,2022-09-11 09:38:19.750000
1464,1662885500.0,2022-09-11 09:38:20.000000
1465,1662885500.25,2022-09-11 09:38:20.250000
1466,1662885500.5,2022-09-11 09:38:20.500000
1467,1662885500.75,2022-09-11 09:38:20.750000
1468,1662885501.0,2022-09-11 09:38:21.000000
1469,1662885501.25,2022-09-11 09:38:21.250000
1470,1662885501.5,2022-09-11 09:38:21.500000
1471,1662885501.75,2022-09-11 09:38:21.750000
1472,1662885502.0,2022-09-11 09:38:22.000000
1473,1662885502.25,2022-09-11 09:38:22.250000
1474,1662885502.5,2022-09-11 09:38:22.500000
1475,1662885502.75,2022-09-11 09:38:22.750000
1476,1662885503.0,2022-09-11 09:38:23.000000
1477,1662885503.25,2022-09-11 09:38:23.250000
1478,1662885503.5,2022-09-11 09:38:23.500000
1479,1662885503.75,2022-09-11 09:38:23.750000
1480,1662885504.0,2022-09-11 09:38:24.000000
1481,1662885504.25,2022-09-11 09:38:24.250000
1482,1662885504.5,2022-09-11 09:38:24.500000
1483,1662885504.75,2022-09-11 09:38:24.750000
1484,1662885505.0,2022-09-11 09:38:25.000000
1485,1662885505.25,2022-09-11 09:38:25.250000
1486,1662885505.5,2022-09-11 09:38:25.500000
1487,1662885505.75,2022-09-11 09:38:25.750000
1488,1662885506.0,2022-09-11 09:38:26.000000
1489,1662885506.25,2022-09-11 09:38:26.250000
1490,1662885506.5,2022-09-11 09:38:26.500000
1491,1662885506.75,2022-09-11 09:38:26.750000
1492,1662885507.0,2022-09-11 09:38:27.000000
1493,1662885507.25,2022-09-11 09:38:27.250000
1494,1662885507.5,2022-09-11 09:38:27.500000
1495,1662885507.75,2022-09-11 09:38:27.750000
1496,1662885508.0,2022-09-11 09:38:28.000000
1497,1662885508.25,2022-09-11 09:38:28.250000
1498,1662885508.5,2022-09-11 09:38:28.500000
1499,1662885508.75,2022-09-11 09:38:28.750000
1500,1662885509.0,2022-09-11 09:38:29.000000
1501,1662885509.25,2022-09-11 09:38:29.250000
1502,1662885509.5,2022-09-11 09:38:29.500000
1503,1662885509.75,2022-09-11 09:38:29.750000
1504,1662885510.0,2022-09-11 09:38:30.000000
1505,1662885510.25,2022-09-11 09:38:30.250000
1506,1662885510.5,2022-09-11 09:38:30.500000
1507,1662885510.75,2022-09-11 09:38:30.750000
1508,1662885511.0,2022-09-11 09:38:31.000000
1509,1662885511.25,2022-09-11 09:38:31.250000
1510,1662885511.5,2022-09-11 09:38:31.500000
1511,1662885511.75,2022-09-11 09:38:31.750000
1512,1662885512.0,2022-09-11 09:38:32.000000
1513,1662885512.25,2022-09-11 09:38:32.250000
1514,1662885512.5,2022-09-11 09:38:32.500000
1515,1662885512.75,2022-09-11 09:38:32.750000
1516,1662885513.0,2022-09-11 09:38:33.000000
1517,1662885513.25,2022-09-11 09:38:33.250000
1518,1662885513.5,2022-09-11 09:38:33.500000
1519,1662885513.75,2022-09-11 09:38:33.750000
1520,1662885514.0,2022-09-11 09:38:34.000000
1521,1662885514.25,2022-09-11 09:38:34.250000
1522,1662885514.5,2022-09-11 09:38:34.500000
1523,1662885514.75,2022-09-11 09:38:34.750000
1524,1662885515.0,2022-09-11 09:38:35.000000
1525,1662885515.25,2022-09-11 09:38:35.250000
1526,1662885515.5,2022-09-11 09:38:35.500000
1527,1662885515.75,2022-09-11 09:38:35.750000
1528,1662885516.0,2022-09-11 09:38:36.000000
1529,1662885516.25,2022-09-11 09:38:36.250000
1530,1662885516.5,2022-09-11 09:38:36.500000
1531,1662885516.75,2022-09-11 09:38:36.750000
1532,1662885517.0,2022-09-11 09:38:37.000000
1533,1662885517.25,2022-09-11 09:38:37.250000
1534,1662885517.5,2022-09-11 09:38:37.500000
1535,1662885517.75,2022-09-11 09:38:37.750000
1536,1662885518.0,2022-09-11 09:38:38.000000
1537,1662885518.25,2022-09-11 09:38:38.250000
1538,1662885518.5,2022-09-11 09:38:38.500000
1539,1662885518.75,2022-09-11 09:38:38.750000
1540,1662885519.0,2022-09-11 09:38:39.000000
1541,1662885519.25,2022-09-11 09:38:39.250000
1542,1662885519.5,2022-09-11 09:38:39.500000
1543,1662885519.75,2022-09-11 09:38:39.750000
1544,1662885520.0,2022-09-11 09:38:40.000000
1545,1662885520.25,2022-09-11 09:38:40.250000
1546,1662885520.5,2022-09-11 09:38:40.500000
1547,1662885520.75,2022-09-11 09:38:40.750000
1548,1662885521.0,2022-09-11 09:38:41.000000
1549,1662885521.25,2022-09-11 09:38:41.250000
1550,1662885521.5,2022-09-11 09:38:41.500000
1551,1662885521.75,2022-09-11 09:38:41.750000
1552,1662885522.0,2022-09-11 09:38:42.000000
1553,1662885522.25,2022-09-11 09:38:42.250000
1554,1662885522.5,2022-09-11 09:38:42.500000
1555,1662885522.75,2022-09-11 09:38:42.750000
1556,1662885523.0,2022-09-11 09:38:43.000000
1557,1662885523.25,2022-09-11 09:38:43.250000
1558,1662885523.5,2022-09-11 09:38:43.500000
1559,1662885523.75,2022-09-11 09:38:43.750000
1560,1662885524.0,2022-09-11 09:38:44.000000
1561,1662885524.25,2022-09-11 09:38:44.250000
1562,1662885524.5,2022-09-11 09:38:44.500000
1563,1662885524.75,2022-09-11 09:38:44.750000
1564,1662885525.0,2022-09-11 09:38:45.000000
1565,1662885525.25,2022-09-11 09:38:45.250000
1566,1662885525.5,2022-09-11 09:38:45.500000
1567,1662885525.75,2022-09-11 09:38:45.750000
1568,1662885526.0,2022-09-11 09:38:46.000000
1569,1662885526.25,2022-09-11 09:38:46.250000
1570,1662885526.5,2022-09-11 09:38:46.500000
1571,1662885526.75,2022-09-11 09:38:46.750000
1572,1662885527.0,2022-09-11 09:38:47.000000
1573,1662885527.25,2022-09-11 09:38:47.250000
1574,1662885527.5,2022-09-11 09:38:47.500000
1575,1662885527.75,2022-09-11 09:38:47.750000
1576,1662885528.0,2022-09-11 09:38:48.000000
1577,1662885528.25,2022-09-11 09:38:48.250000
1578,1662885528.5,2022-09-11 09:38:48.500000
1579,1662885528.75,2022-09-11 09:38:48.750000
1580,1662885529.0,2022-09-11 09:38:49.000000
1581,1662885529.25,2022-09-11 09:38:49.250000
1582,1662885529.5,2022-09-11 09:38:49.500000
1583,1662885529.75,2022-09-11 09:38:49.750000
1584,1662885530.0,2022-09-11 09:38:50.000000
1585,1662885530.25,2022-09-11 09:38:50.250000
1586,1662885530.5,2022-09-11 09:38:50.500000
1587,1662885530.75,2022-09-11 09:38:50.750000
1588,1662885531.0,2022-09-11 09:38:51.000000
1589,1662885531.25,2022-09-11 09:38:51.250000
1590,1662885531.5,2022-09-11 09:38:51.500000
1591,1662885531.75,2022-09-11 09:38:51.750000
1592,1662885532.0,2022-09-11 09:38:52.000000
1593,1662885532.25,2022-09-11 09:38:52.250000
1594,1662885532.5,2022-09-11 09:38:52.500000
1595,1662885532.75,2022-09-11 09:38:52.750000
1596,1662885533.0,2022-09-11 09:38:53.000000
1597,1662885533.25,2022-09-11 09:38:53.250000
1598,1662885533.5,2022-09-11 09:38:53.500000
1599,1662885533.75,2022-09-11 09:38:53.750000
1600,1662885534.0,2022-09-11 09:38:54.000000
1601,1662885534.25,2022-09-11 09:38:54.250000
1602,1662885534.5,2022-09-11 09:38:54.500000
1603,1662885534.75,2022-09-11 09:38:54.750000
1604,1662885535.0,2022-09-11 09:38:55.000000
1605,1662885535.25,2022-09-11 09:38:55.250000
1606,1662885535.5,2022-09-11 09:38:55.500000
1607,1662885535.75,2022-09-11 09:38:55.750000
1608,1662885536.0,2022-09-11 09:38:56.000000
1609,1662885536.25,2022-09-11 09:38:56.250000
1610,1662885536.5,2022-09-11 09:38:56.500000
1611,1662885536.75,2022-09-11 09:38:56.750000
1612,1662885537.0,2022-09-11 09:38:57.000000
1613,1662885537.25,2022-09-11 09:38:57.250000
1614,1662885537.5,2022-09-11 09:38:57.500000
1615,1662885537.75,2022-09-11 09:38:57.750000
1616,1662885538.0,2022-09-11 09:38:58.000000
1617,1662885538.25,2022-09-11 09:38:58.250000
1618,1662885538.5,2022-09-11 09:38:58.500000
1620,1662885539.0,2022-09-11 09:38:59.000000
1621,1662885539.25,2022-09-11 09:38:59.250000
1622,1662885539.5,2022-09-11 09:38:59.500000
1623,1662885539.75,2022-09-11 09:38:59.750000
1624,1662885540.0,2022-09-11 09:39:00.000000
1625,1662885540.25,2022-09-11 09:39:00.250000
1626,1662885540.5,2022-09-11 09:39:00.500000
1627,1662885540.75,2022-09-11 09:39:00.750000
1628,1662885541.0,2022-09-11 09:39:01.000000
1629,1662885541.25,2022-09-11 09:39:01.250000
1630,1662885541.5,2022-09-11 09:39:01.500000
1631,1662885541.75,2022-09-11 09:39:01.750000
1640,1662885544.0,2022-09-11 09:39:04.000000
1641,1662885544.25,2022-09-11 09:39:04.250000
1642,1662885544.5,2022-09-11 09:39:04.500000
1643,1662885544.75,2022-09-11 09:39:04.750000
1647,1662885545.75,2022-09-11 09:39:05.750000
1649,1662885546.25,2022-09-11 09:39:06.250000
1650,1662885546.5,2022-09-11 09:39:06.500000
1651,1662885546.75,2022-09-11 09:39:06.750000
1652,1662885547.0,2022-09-11 09:39:07.000000
1653,1662885547.25,2022-09-11 09:39:07.250000
1654,1662885547.5,2022-09-11 09:39:07.500000
1655,1662885547.75,2022-09-11 09:39:07.750000
1656,1662885548.0,2022-09-11 09:39:08.000000
1657,1662885548.25,2022-09-11 09:39:08.250000
1658,1662885548.5,2022-09-11 09:39:08.500000
1659,1662885548.75,2022-09-11 09:39:08.750000
1660,1662885549.0,2022-09-11 09:39:09.000000
1661,1662885549.25,2022-09-11 09:39:09.250000
1662,1662885549.5,2022-09-11 09:39:09.500000
1663,1662885549.75,2022-09-11 09:39:09.750000
1664,1662885550.0,2022-09-11 09:39:10.000000
1665,1662885550.25,2022-09-11 09:39:10.250000
1666,1662885550.5,2022-09-11 09:39:10.500000
1667,1662885550.75,2022-09-11 09:39:10.750000
1668,1662885551.0,2022-09-11 09:39:11.000000
1669,1662885551.25,2022-09-11 09:39:11.250000
1670,1662885551.5,2022-09-11 09:39:11.500000
1671,1662885551.75,2022-09-11 09:39:11.750000
1672,1662885552.0,2022-09-11 09:39:12.000000
1673,1662885552.25,2022-09-11 09:39:12.250000
1674,1662885552.5,2022-09-11 09:39:12.500000
1675,1662885552.75,2022-09-11 09:39:12.750000
1676,1662885553.0,2022-09-11 09:39:13.000000
1677,1662885553.25,2022-09-11 09:39:13.250000
1678,1662885553.5,2022-09-11 09:39:13.500000
1679,1662885553.75,2022-09-11 09:39:13.750000
1680,1662885554.0,2022-09-11 09:39:14.000000
1681,1662885554.25,2022-09-11 09:39:14.250000
1682,1662885554.5,2022-09-11 09:39:14.500000
1683,1662885554.75,2022-09-11 09:39:14.750000
1684,1662885555.0,2022-09-11 09:39:15.000000
1685,1662885555.25,2022-09-11 09:39:15.250000
1686,1662885555.5,2022-09-11 09:39:15.500000
1687,1662885555.75,2022-09-11 09:39:15.750000
1688,1662885556.0,2022-09-11 09:39:16.000000
1689,1662885556.25,2022-09-11 09:39:16.250000
1690,1662885556.5,2022-09-11 09:39:16.500000
1691,1662885556.75,2022-09-11 09:39:16.750000
1692,1662885557.0,2022-09-11 09:39:17.000000
1693,1662885557.25,2022-09-11 09:39:17.250000
1694,1662885557.5,2022-09-11 09:39:17.500000
1695,1662885557.75,2022-09-11 09:39:17.750000
1696,1662885558.0,2022-09-11 09:39:18.000000
1697,1662885558.25,2022-09-11 09:39:18.250000
1698,1662885558.5,2022-09-11 09:39:18.500000
1699,1662885558.75,2022-09-11 09:39:18.750000
1700,1662885559.0,2022-09-11 09:39:19.000000
1701,1662885559.25,2022-09-11 09:39:19.250000
1702,1662885559.5,2022-09-11 09:39:19.500000
1703,1662885559.75,2022-09-11 09:39:19.750000
1704,1662885560.0,2022-09-11 09:39:20.000000
1705,1662885560.25,2022-09-11 09:39:20.250000
1706,1662885560.5,2022-09-11 09:39:20.500000
1707,1662885560.75,2022-09-11 09:39:20.750000
1708,1662885561.0,2022-09-11 09:39:21.000000
1709,1662885561.25,2022-09-11 09:39:21.250000
1710,1662885561.5,2022-09-11 09:39:21.500000
1711,1662885561.75,2022-09-11 09:39:21.750000
1712,1662885562.0,2022-09-11 09:39:22.000000
1713,1662885562.25,2022-09-11 09:39:22.250000
1714,1662885562.5,2022-09-11 09:39:22.500000
1715,1662885562.75,2022-09-11 09:39:22.750000
1716,1662885563.0,2022-09-11 09:39:23.000000
1717,1662885563.25,2022-09-11 09:39:23.250000
1718,1662885563.5,2022-09-11 09:39:23.500000
1719,1662885563.75,2022-09-11 09:39:23.750000
1720,1662885564.0,2022-09-11 09:39:24.000000
1721,1662885564.25,2022-09-11 09:39:24.250000
1722,1662885564.5,2022-09-11 09:39:24.500000
1723,1662885564.75,2022-09-11 09:39:24.750000
1724,1662885565.0,2022-09-11 09:39:25.000000
1725,1662885565.25,2022-09-11 09:39:25.250000
1726,1662885565.5,2022-09-11 09:39:25.500000
1727,1662885565.75,2022-09-11 09:39:25.750000
1728,1662885566.0,2022-09-11 09:39:26.000000
1729,1662885566.25,2022-09-11 09:39:26.250000
1730,1662885566.5,2022-09-11 09:39:26.500000
1731,1662885566.75,2022-09-11 09:39:26.750000
1732,1662885567.0,2022-09-11 09:39:27.000000
1733,1662885567.25,2022-09-11 09:39:27.250000
1734,1662885567.5,2022-09-11 09:39:27.500000
1735,1662885567.75,2022-09-11 09:39:27.750000
1736,1662885568.0,2022-09-11 09:39:28.000000
1737,1662885568.25,2022-09-11 09:39:28.250000
1738,1662885568.5,2022-09-11 09:39:28.500000
1739,1662885568.75,2022-09-11 09:39:28.750000
1740,1662885569.0,2022-09-11 09:39:29.000000
1741,1662885569.25,2022-09-11 09:39:29.250000
1742,1662885569.5,2022-09-11 09:39:29.500000
1743,1662885569.75,2022-09-11 09:39:29.750000
1744,1662885570.0,2022-09-11 09:39:30.000000
1745,1662885570.25,2022-09-11 09:39:30.250000
1746,1662885570.5,2022-09-11 09:39:30.500000
1747,1662885570.75,2022-09-11 09:39:30.750000
1748,1662885571.0,2022-09-11 09:39:31.000000
1749,1662885571.25,2022-09-11 09:39:31.250000
1750,1662885571.5,2022-09-11 09:39:31.500000
1751,1662885571.75,2022-09-11 09:39:31.750000
1752,1662885572.0,2022-09-11 09:39:32.000000
1753,1662885572.25,2022-09-11 09:39:32.250000
1754,1662885572.5,2022-09-11 09:39:32.500000
1755,1662885572.75,2022-09-11 09:39:32.750000
1756,1662885573.0,2022-09-11 09:39:33.000000
1757,1662885573.25,2022-09-11 09:39:33.250000
1758,1662885573.5,2022-09-11 09:39:33.500000
1759,1662885573.75,2022-09-11 09:39:33.750000
1760,1662885574.0,2022-09-11 09:39:34.000000
1761,1662885574.25,2022-09-11 09:39:34.250000
1762,1662885574.5,2022-09-11 09:39:34.500000
1763,1662885574.75,2022-09-11 09:39:34.750000
1764,1662885575.0,2022-09-11 09:39:35.000000
1765,1662885575.25,2022-09-11 09:39:35.250000
1766,1662885575.5,2022-09-11 09:39:35.500000
1767,1662885575.75,2022-09-11 09:39:35.750000
1768,1662885576.0,2022-09-11 09:39:36.000000
1769,1662885576.25,2022-09-11 09:39:36.250000
1770,1662885576.5,2022-09-11 09:39:36.500000
1771,1662885576.75,2022-09-11 09:39:36.750000
1772,1662885577.0,2022-09-11 09:39:37.000000
1773,1662885577.25,2022-09-11 09:39:37.250000
1774,1662885577.5,2022-09-11 09:39:37.500000
1775,1662885577.75,2022-09-11 09:39:37.750000
1776,1662885578.0,2022-09-11 09:39:38.000000
1777,1662885578.25,2022-09-11 09:39:38.250000
1778,1662885578.5,2022-09-11 09:39:38.500000
1779,1662885578.75,2022-09-11 09:39:38.750000
1780,1662885579.0,2022-09-11 09:39:39.000000
1781,1662885579.25,2022-09-11 09:39:39.250000
1782,1662885579.5,2022-09-11 09:39:39.500000
1783,1662885579.75,2022-09-11 09:39:39.750000
1784,1662885580.0,2022-09-11 09:39:40.000000
1785,1662885580.25,2022-09-11 09:39:40.250000
1786,1662885580.5,2022-09-11 09:39:40.500000
1787,1662885580.75,2022-09-11 09:39:40.750000
1788,1662885581.0,2022-09-11 09:39:41.000000
1789,1662885581.25,2022-09-11 09:39:41.250000
1790,1662885581.5,2022-09-11 09:39:41.500000
1791,1662885581.75,2022-09-11 09:39:41.750000
1792,1662885582.0,2022-09-11 09:39:42.000000
1793,1662885582.25,2022-09-11 09:39:42.250000
1794,1662885582.5,2022-09-11 09:39:42.500000
1795,1662885582.75,2022-09-11 09:39:42.750000
1796,1662885583.0,2022-09-11 09:39:43.000000
1797,1662885583.25,2022-09-11 09:39:43.250000
1798,1662885583.5,2022-09-11 09:39:43.500000
1799,1662885583.75,2022-09-11 09:39:43.750000
1800,1662885584.0,2022-09-11 09:39:44.000000
1801,1662885584.25,2022-09-11 09:39:44.250000
1802,1662885584.5,2022-09-11 09:39:44.500000
1803,1662885584.75,2022-09-11 09:39:44.750000
1804,1662885585.0,2022-09-11 09:39:45.000000
1805,1662885585.25,2022-09-11 09:39:45.250000
1806,1662885585.5,2022-09-11 09:39:45.500000
1807,1662885585.75,2022-09-11 09:39:45.750000
1808,1662885586.0,2022-09-11 09:39:46.000000
1809,1662885586.25,2022-09-11 09:39:46.250000
1810,1662885586.5,2022-09-11 09:39:46.500000
1811,1662885586.75,2022-09-11 09:39:46.750000
1812,1662885587.0,2022-09-11 09:39:47.000000
1813,1662885587.25,2022-09-11 09:39:47.250000
1814,1662885587.5,2022-09-11 09:39:47.500000
1815,1662885587.75,2022-09-11 09:39:47.750000
1816,1662885588.0,2022-09-11 09:39:48.000000
1817,1662885588.25,2022-09-11 09:39:48.250000
1818,1662885588.5,2022-09-11 09:39:48.500000
1819,1662885588.75,2022-09-11 09:39:48.750000
1820,1662885589.0,2022-09-11 09:39:49.000000
1821,1662885589.25,2022-09-11 09:39:49.250000
1822,1662885589.5,2022-09-11 09:39:49.500000
1823,1662885589.75,2022-09-11 09:39:49.750000
1824,1662885590.0,2022-09-11 09:39:50.000000
1825,1662885590.25,2022-09-11 09:39:50.250000
1826,1662885590.5,2022-09-11 09:39:50.500000
1827,1662885590.75,2022-09-11 09:39:50.750000
1828,1662885591.0,2022-09-11 09:39:51.000000
1829,1662885591.25,2022-09-11 09:39:51.250000
1830,1662885591.5,2022-09-11 09:39:51.500000
1831,1662885591.75,2022-09-11 09:39:51.750000
1832,1662885592.0,2022-09-11 09:39:52.000000
1833,1662885592.25,2022-09-11 09:39:52.250000
1834,1662885592.5,2022-09-11 09:39:52.500000
1835,1662885592.75,2022-09-11 09:39:52.750000
1836,1662885593.0,2022-09-11 09:39:53.000000
1837,1662885593.25,2022-09-11 09:39:53.250000
1838,1662885593.5,2022-09-11 09:39:53.500000
1839,1662885593.75,2022-09-11 09:39:53.750000
1840,1662885594.0,2022-09-11 09:39:54.000000
1841,1662885594.25,2022-09-11 09:39:54.250000
1842,1662885594.5,2022-09-11 09:39:54.500000
1843,1662885594.75,2022-09-11 09:39:54.750000
1844,1662885595.0,2022-09-11 09:39:55.000000
1845,1662885595.25,2022-09-11 09:39:55.250000
1846,1662885595.5,2022-09-11 09:39:55.500000
1847,1662885595.75,2022-09-11 09:39:55.750000
1848,1662885596.0,2022-09-11 09:39:56.000000
1849,1662885596.25,2022-09-11 09:39:56.250000
1850,1662885596.5,2022-09-11 09:39:56.500000
1851,1662885596.75,2022-09-11 09:39:56.750000
1852,1662885597.0,2022-09-11 09:39:57.000000
1853,1662885597.25,2022-09-11 09:39:57.250000
1854,1662885597.5,2022-09-11 09:39:57.500000
1855,1662885597.75,2022-09-11 09:39:57.750000
1856,1662885598.0,2022-09-11 09:39:58.000000
1857,1662885598.25,2022-09-11 09:39:58.250000
1858,1662885598.5,2022-09-11 09:39:58.500000
1859,1662885598.75,2022-09-11 09:39:58.750000
1860,1662885599.0,2022-09-11 09:39:59.000000
1861,1662885599.25,2022-09-11 09:39:59.250000
1862,1662885599.5,2022-09-11 09:39:59.500000
1863,1662885599.75,2022-09-11 09:39:59.750000
1864,1662885600.0,2022-09-11 09:40:00.000000
1865,1662885600.25,2022-09-11 09:40:00.250000
1866,1662885600.5,2022-09-11 09:40:00.500000
1867,1662885600.75,2022-09-11 09:40:00.750000
1868,1662885601.0,2022-09-11 09:40:01.000000
1869,1662885601.25,2022-09-11 09:40:01.250000
1870,1662885601.5,2022-09-11 09:40:01.500000
1871,1662885601.75,2022-09-11 09:40:01.750000
1872,1662885602.0,2022-09-11 09:40:02.000000
1873,1662885602.25,2022-09-11 09:40:02.250000
1874,1662885602.5,2022-09-11 09:40:02.500000
1875,1662885602.75,2022-09-11 09:40:02.750000
1876,1662885603.0,2022-09-11 09:40:03.000000
1877,1662885603.25,2022-09-11 09:40:03.250000
1878,1662885603.5,2022-09-11 09:40:03.500000
1879,1662885603.75,2022-09-11 09:40:03.750000
1880,1662885604.0,2022-09-11 09:40:04.000000
1881,1662885604.25,2022-09-11 09:40:04.250000
1882,1662885604.5,2022-09-11 09:40:04.500000
1883,1662885604.75,2022-09-11 09:40:04.750000
1884,1662885605.0,2022-09-11 09:40:05.000000
1885,1662885605.25,2022-09-11 09:40:05.250000
1886,1662885605.5,2022-09-11 09:40:05.500000
1887,1662885605.75,2022-09-11 09:40:05.750000
1888,1662885606.0,2022-09-11 09:40:06.000000
1889,1662885606.25,2022-09-11 09:40:06.250000
1890,1662885606.5,2022-09-11 09:40:06.500000
1891,1662885606.75,2022-09-11 09:40:06.750000
2165,1662885675.25,2022-09-11 09:41:15.250000
2166,1662885675.5,2022-09-11 09:41:15.500000
2167,1662885675.75,2022-09-11 09:41:15.750000
2168,1662885676.0,2022-09-11 09:41:16.000000
2169,1662885676.25,2022-09-11 09:41:16.250000
2170,1662885676.5,2022-09-11 09:41:16.500000
2171,1662885676.75,2022-09-11 09:41:16.750000
2172,1662885677.0,2022-09-11 09:41:17.000000
2173,1662885677.25,2022-09-11 09:41:17.250000
2174,1662885677.5,2022-09-11 09:41:17.500000
2175,1662885677.75,2022-09-11 09:41:17.750000
2176,1662885678.0,2022-09-11 09:41:18.000000
2177,1662885678.25,2022-09-11 09:41:18.250000
2178,1662885678.5,2022-09-11 09:41:18.500000
2179,1662885678.75,2022-09-11 09:41:18.750000
2180,1662885679.0,2022-09-11 09:41:19.000000
2181,1662885679.25,2022-09-11 09:41:19.250000
2182,1662885679.5,2022-09-11 09:41:19.500000
2183,1662885679.75,2022-09-11 09:41:19.750000
2184,1662885680.0,2022-09-11 09:41:20.000000
2185,1662885680.25,2022-09-11 09:41:20.250000
2186,1662885680.5,2022-09-11 09:41:20.500000
2187,1662885680.75,2022-09-11 09:41:20.750000
2188,1662885681.0,2022-09-11 09:41:21.000000
2189,1662885681.25,2022-09-11 09:41:21.250000
2190,1662885681.5,2022-09-11 09:41:21.500000
2191,1662885681.75,2022-09-11 09:41:21.750000
2192,1662885682.0,2022-09-11 09:41:22.000000
2193,1662885682.25,2022-09-11 09:41:22.250000
2194,1662885682.5,2022-09-11 09:41:22.500000
2195,1662885682.75,2022-09-11 09:41:22.750000
2196,1662885683.0,2022-09-11 09:41:23.000000
2197,1662885683.25,2022-09-11 09:41:23.250000
2198,1662885683.5,2022-09-11 09:41:23.500000
2199,1662885683.75,2022-09-11 09:41:23.750000
2200,1662885684.0,2022-09-11 09:41:24.000000
2201,1662885684.25,2022-09-11 09:41:24.250000
2202,1662885684.5,2022-09-11 09:41:24.500000
2203,1662885684.75,2022-09-11 09:41:24.750000
2204,1662885685.0,2022-09-11 09:41:25.000000
2205,1662885685.25,2022-09-11 09:41:25.250000
2206,1662885685.5,2022-09-11 09:41:25.500000
2207,1662885685.75,2022-09-11 09:41:25.750000
2208,1662885686.0,2022-09-11 09:41:26.000000
2209,1662885686.25,2022-09-11 09:41:26.250000
2210,1662885686.5,2022-09-11 09:41:26.500000
2211,1662885686.75,2022-09-11 09:41:26.750000
2212,1662885687.0,2022-09-11 09:41:27.000000
2213,1662885687.25,2022-09-11 09:41:27.250000
2214,1662885687.5,2022-09-11 09:41:27.500000
2215,1662885687.75,2022-09-11 09:41:27.750000
2216,1662885688.0,2022-09-11 09:41:28.000000
2217,1662885688.25,2022-09-11 09:41:28.250000
2218,1662885688.5,2022-09-11 09:41:28.500000
2219,1662885688.75,2022-09-11 09:41:28.750000
2220,1662885689.0,2022-09-11 09:41:29.000000
2221,1662885689.25,2022-09-11 09:41:29.250000
2222,1662885689.5,2022-09-11 09:41:29.500000
2223,1662885689.75,2022-09-11 09:41:29.750000
2224,1662885690.0,2022-09-11 09:41:30.000000
2225,1662885690.25,2022-09-11 09:41:30.250000
2226,1662885690.5,2022-09-11 09:41:30.500000
2227,1662885690.75,2022-09-11 09:41:30.750000
2228,1662885691.0,2022-09-11 09:41:31.000000
2229,1662885691.25,2022-09-11 09:41:31.250000
2230,1662885691.5,2022-09-11 09:41:31.500000
2231,1662885691.75,2022-09-11 09:41:31.750000
2232,1662885692.0,2022-09-11 09:41:32.000000
2233,1662885692.25,2022-09-11 09:41:32.250000
2234,1662885692.5,2022-09-11 09:41:32.500000
2235,1662885692.75,2022-09-11 09:41:32.750000
2236,1662885693.0,2022-09-11 09:41:33.000000
2237,1662885693.25,2022-09-11 09:41:33.250000
2238,1662885693.5,2022-09-11 09:41:33.500000
2239,1662885693.75,2022-09-11 09:41:33.750000
2240,1662885694.0,2022-09-11 09:41:34.000000
2241,1662885694.25,2022-09-11 09:41:34.250000
2242,1662885694.5,2022-09-11 09:41:34.500000
2243,1662885694.75,2022-09-11 09:41:34.750000
2244,1662885695.0,2022-09-11 09:41:35.000000
2245,1662885695.25,2022-09-11 09:41:35.250000
2246,1662885695.5,2022-09-11 09:41:35.500000
2247,1662885695.75,2022-09-11 09:41:35.750000
2248,1662885696.0,2022-09-11 09:41:36.000000
2249,1662885696.25,2022-09-11 09:41:36.250000
2250,1662885696.5,2022-09-11 09:41:36.500000
2251,1662885696.75,2022-09-11 09:41:36.750000
2252,1662885697.0,2022-09-11 09:41:37.000000
2253,1662885697.25,2022-09-11 09:41:37.250000
2254,1662885697.5,2022-09-11 09:41:37.500000
2255,1662885697.75,2022-09-11 09:41:37.750000
2256,1662885698.0,2022-09-11 09:41:38.000000
2257,1662885698.25,2022-09-11 09:41:38.250000
2258,1662885698.5,2022-09-11 09:41:38.500000
2259,1662885698.75,2022-09-11 09:41:38.750000
2260,1662885699.0,2022-09-11 09:41:39.000000
2261,1662885699.25,2022-09-11 09:41:39.250000
2262,1662885699.5,2022-09-11 09:41:39.500000
2263,1662885699.75,2022-09-11 09:41:39.750000
2264,1662885700.0,2022-09-11 09:41:40.000000
2265,1662885700.25,2022-09-11 09:41:40.250000
2266,1662885700.5,2022-09-11 09:41:40.500000
2267,1662885700.75,2022-09-11 09:41:40.750000
2268,1662885701.0,2022-09-11 09:41:41.000000
2269,1662885701.25,2022-09-11 09:41:41.250000
2270,1662885701.5,2022-09-11 09:41:41.500000
2271,1662885701.75,2022-09-11 09:41:41.750000
2272,1662885702.0,2022-09-11 09:41:42.000000
2273,1662885702.25,2022-09-11 09:41:42.250000
2274,1662885702.5,2022-09-11 09:41:42.500000
2275,1662885702.75,2022-09-11 09:41:42.750000
2276,1662885703.0,2022-09-11 09:41:43.000000
2277,1662885703.25,2022-09-11 09:41:43.250000
2278,1662885703.5,2022-09-11 09:41:43.500000
2279,1662885703.75,2022-09-11 09:41:43.750000
2280,1662885704.0,2022-09-11 09:41:44.000000
2281,1662885704.25,2022-09-11 09:41:44.250000
2282,1662885704.5,2022-09-11 09:41:44.500000
2283,1662885704.75,2022-09-11 09:41:44.750000
2284,1662885705.0,2022-09-11 09:41:45.000000
2285,1662885705.25,2022-09-11 09:41:45.250000
2286,1662885705.5,2022-09-11 09:41:45.500000
2287,1662885705.75,2022-09-11 09:41:45.750000
2288,1662885706.0,2022-09-11 09:41:46.000000
2289,1662885706.25,2022-09-11 09:41:46.250000
2290,1662885706.5,2022-09-11 09:41:46.500000
2291,1662885706.75,2022-09-11 09:41:46.750000
2292,1662885707.0,2022-09-11 09:41:47.000000
2293,1662885707.25,2022-09-11 09:41:47.250000
2294,1662885707.5,2022-09-11 09:41:47.500000
2295,1662885707.75,2022-09-11 09:41:47.750000
2296,1662885708.0,2022-09-11 09:41:48.000000
2297,1662885708.25,2022-09-11 09:41:48.250000
2298,1662885708.5,2022-09-11 09:41:48.500000
2299,1662885708.75,2022-09-11 09:41:48.750000
2300,1662885709.0,2022-09-11 09:41:49.000000
2301,1662885709.25,2022-09-11 09:41:49.250000
2302,1662885709.5,2022-09-11 09:41:49.500000
2303,1662885709.75,2022-09-11 09:41:49.750000
2304,1662885710.0,2022-09-11 09:41:50.000000
2305,1662885710.25,2022-09-11 09:41:50.250000
2306,1662885710.5,2022-09-11 09:41:50.500000
2307,1662885710.75,2022-09-11 09:41:50.750000
2308,1662885711.0,2022-09-11 09:41:51.000000
2309,1662885711.25,2022-09-11 09:41:51.250000
2310,1662885711.5,2022-09-11 09:41:51.500000
2311,1662885711.75,2022-09-11 09:41:51.750000
2312,1662885712.0,2022-09-11 09:41:52.000000
2313,1662885712.25,2022-09-11 09:41:52.250000
2314,1662885712.5,2022-09-11 09:41:52.500000
2315,1662885712.75,2022-09-11 09:41:52.750000
2316,1662885713.0,2022-09-11 09:41:53.000000
2317,1662885713.25,2022-09-11 09:41:53.250000
2318,1662885713.5,2022-09-11 09:41:53.500000
2319,1662885713.75,2022-09-11 09:41:53.750000
2320,1662885714.0,2022-09-11 09:41:54.000000
2321,1662885714.25,2022-09-11 09:41:54.250000
2322,1662885714.5,2022-09-11 09:41:54.500000
2323,1662885714.75,2022-09-11 09:41:54.750000
2324,1662885715.0,2022-09-11 09:41:55.000000
2325,1662885715.25,2022-09-11 09:41:55.250000
2326,1662885715.5,2022-09-11 09:41:55.500000
2327,1662885715.75,2022-09-11 09:41:55.750000
2328,1662885716.0,2022-09-11 09:41:56.000000
2330,1662885716.5,2022-09-11 09:41:56.500000
2331,1662885716.75,2022-09-11 09:41:56.750000
2332,1662885717.0,2022-09-11 09:41:57.000000
2334,1662885717.5,2022-09-11 09:41:57.500000
2335,1662885717.75,2022-09-11 09:41:57.750000
2336,1662885718.0,2022-09-11 09:41:58.000000
2337,1662885718.25,2022-09-11 09:41:58.250000
2338,1662885718.5,2022-09-11 09:41:58.500000
2339,1662885718.75,2022-09-11 09:41:58.750000
2340,1662885719.0,2022-09-11 09:41:59.000000
2341,1662885719.25,2022-09-11 09:41:59.250000
2342,1662885719.5,2022-09-11 09:41:59.500000
2343,1662885719.75,2022-09-11 09:41:59.750000
2344,1662885720.0,2022-09-11 09:42:00.000000
2345,1662885720.25,2022-09-11 09:42:00.250000
2346,1662885720.5,2022-09-11 09:42:00.500000
2347,1662885720.75,2022-09-11 09:42:00.750000
2348,1662885721.0,2022-09-11 09:42:01.000000
2349,1662885721.25,2022-09-11 09:42:01.250000
2350,1662885721.5,2022-09-11 09:42:01.500000
2351,1662885721.75,2022-09-11 09:42:01.750000
2352,1662885722.0,2022-09-11 09:42:02.000000
2353,1662885722.25,2022-09-11 09:42:02.250000
2354,1662885722.5,2022-09-11 09:42:02.500000
2355,1662885722.75,2022-09-11 09:42:02.750000
2356,1662885723.0,2022-09-11 09:42:03.000000
2357,1662885723.25,2022-09-11 09:42:03.250000
2358,1662885723.5,2022-09-11 09:42:03.500000
2359,1662885723.75,2022-09-11 09:42:03.750000
2360,1662885724.0,2022-09-11 09:42:04.000000
2361,1662885724.25,2022-09-11 09:42:04.250000
2362,1662885724.5,2022-09-11 09:42:04.500000
2363,1662885724.75,2022-09-11 09:42:04.750000
2364,1662885725.0,2022-09-11 09:42:05.000000
2365,1662885725.25,2022-09-11 09:42:05.250000
2366,1662885725.5,2022-09-11 09:42:05.500000
2367,1662885725.75,2022-09-11 09:42:05.750000
2368,1662885726.0,2022-09-11 09:42:06.000000
2369,1662885726.25,2022-09-11 09:42:06.250000
2370,1662885726.5,2022-09-11 09:42:06.500000
2371,1662885726.75,2022-09-11 09:42:06.750000
2372,1662885727.0,2022-09-11 09:42:07.000000
2373,1662885727.25,2022-09-11 09:42:07.250000
2374,1662885727.5,2022-09-11 09:42:07.500000
2375,1662885727.75,2022-09-11 09:42:07.750000
2376,1662885728.0,2022-09-11 09:42:08.000000
2377,1662885728.25,2022-09-11 09:42:08.250000
2378,1662885728.5,2022-09-11 09:42:08.500000
2379,1662885728.75,2022-09-11 09:42:08.750000
2380,1662885729.0,2022-09-11 09:42:09.000000
2381,1662885729.25,2022-09-11 09:42:09.250000
2382,1662885729.5,2022-09-11 09:42:09.500000
2383,1662885729.75,2022-09-11 09:42:09.750000
2384,1662885730.0,2022-09-11 09:42:10.000000
2385,1662885730.25,2022-09-11 09:42:10.250000
2386,1662885730.5,2022-09-11 09:42:10.500000
2387,1662885730.75,2022-09-11 09:42:10.750000
2388,1662885731.0,2022-09-11 09:42:11.000000
2389,1662885731.25,2022-09-11 09:42:11.250000
2390,1662885731.5,2022-09-11 09:42:11.500000
2391,1662885731.75,2022-09-11 09:42:11.750000
2392,1662885732.0,2022-09-11 09:42:12.000000
2393,1662885732.25,2022-09-11 09:42:12.250000
2394,1662885732.5,2022-09-11 09:42:12.500000
2395,1662885732.75,2022-09-11 09:42:12.750000
2396,1662885733.0,2022-09-11 09:42:13.000000
2397,1662885733.25,2022-09-11 09:42:13.250000
2398,1662885733.5,2022-09-11 09:42:13.500000
2399,1662885733.75,2022-09-11 09:42:13.750000
2400,1662885734.0,2022-09-11 09:42:14.000000
2401,1662885734.25,2022-09-11 09:42:14.250000
2402,1662885734.5,2022-09-11 09:42:14.500000
2403,1662885734.75,2022-09-11 09:42:14.750000
2404,1662885735.0,2022-09-11 09:42:15.000000
2405,1662885735.25,2022-09-11 09:42:15.250000
2406,1662885735.5,2022-09-11 09:42:15.500000
2407,1662885735.75,2022-09-11 09:42:15.750000
2408,1662885736.0,2022-09-11 09:42:16.000000
2409,1662885736.25,2022-09-11 09:42:16.250000
2410,1662885736.5,2022-09-11 09:42:16.500000
2411,1662885736.75,2022-09-11 09:42:16.750000
2412,1662885737.0,2022-09-11 09:42:17.000000
2413,1662885737.25,2022-09-11 09:42:17.250000
2414,1662885737.5,2022-09-11 09:42:17.500000
2415,1662885737.75,2022-09-11 09:42:17.750000
2416,1662885738.0,2022-09-11 09:42:18.000000
2417,1662885738.25,2022-09-11 09:42:18.250000
2418,1662885738.5,2022-09-11 09:42:18.500000
2419,1662885738.75,2022-09-11 09:42:18.750000
2420,1662885739.0,2022-09-11 09:42:19.000000
2421,1662885739.25,2022-09-11 09:42:19.250000
2422,1662885739.5,2022-09-11 09:42:19.500000
2423,1662885739.75,2022-09-11 09:42:19.750000
2424,1662885740.0,2022-09-11 09:42:20.000000
2425,1662885740.25,2022-09-11 09:42:20.250000
2426,1662885740.5,2022-09-11 09:42:20.500000
2427,1662885740.75,2022-09-11 09:42:20.750000
2428,1662885741.0,2022-09-11 09:42:21.000000
2429,1662885741.25,2022-09-11 09:42:21.250000
2430,1662885741.5,2022-09-11 09:42:21.500000
2431,1662885741.75,2022-09-11 09:42:21.750000
2432,1662885742.0,2022-09-11 09:42:22.000000
2433,1662885742.25,2022-09-11 09:42:22.250000
2434,1662885742.5,2022-09-11 09:42:22.500000
2435,1662885742.75,2022-09-11 09:42:22.750000
2436,1662885743.0,2022-09-11 09:42:23.000000
2437,1662885743.25,2022-09-11 09:42:23.250000
2438,1662885743.5,2022-09-11 09:42:23.500000
2439,1662885743.75,2022-09-11 09:42:23.750000
2440,1662885744.0,2022-09-11 09:42:24.000000
2441,1662885744.25,2022-09-11 09:42:24.250000
2442,1662885744.5,2022-09-11 09:42:24.500000
2443,1662885744.75,2022-09-11 09:42:24.750000
2444,1662885745.0,2022-09-11 09:42:25.000000
2445,1662885745.25,2022-09-11 09:42:25.250000
2446,1662885745.5,2022-09-11 09:42:25.500000
2447,1662885745.75,2022-09-11 09:42:25.750000
2448,1662885746.0,2022-09-11 09:42:26.000000
2449,1662885746.25,2022-09-11 09:42:26.250000
2450,1662885746.5,2022-09-11 09:42:26.500000
2451,1662885746.75,2022-09-11 09:42:26.750000
2452,1662885747.0,2022-09-11 09:42:27.000000
2453,1662885747.25,2022-09-11 09:42:27.250000
2454,1662885747.5,2022-09-11 09:42:27.500000
2455,1662885747.75,2022-09-11 09:42:27.750000
2456,1662885748.0,2022-09-11 09:42:28.000000
2457,1662885748.25,2022-09-11 09:42:28.250000
2458,1662885748.5,2022-09-11 09:42:28.500000
2459,1662885748.75,2022-09-11 09:42:28.750000
2460,1662885749.0,2022-09-11 09:42:29.000000
2461,1662885749.25,2022-09-11 09:42:29.250000
2462,1662885749.5,2022-09-11 09:42:29.500000
2463,1662885749.75,2022-09-11 09:42:29.750000
2464,1662885750.0,2022-09-11 09:42:30.000000
2465,1662885750.25,2022-09-11 09:42:30.250000
2466,1662885750.5,2022-09-11 09:42:30.500000
2467,1662885750.75,2022-09-11 09:42:30.750000
2468,1662885751.0,2022-09-11 09:42:31.000000
2469,1662885751.25,2022-09-11 09:42:31.250000
2470,1662885751.5,2022-09-11 09:42:31.500000
2471,1662885751.75,2022-09-11 09:42:31.750000
2472,1662885752.0,2022-09-11 09:42:32.000000
2473,1662885752.25,2022-09-11 09:42:32.250000
2474,1662885752.5,2022-09-11 09:42:32.500000
2475,1662885752.75,2022-09-11 09:42:32.750000
2476,1662885753.0,2022-09-11 09:42:33.000000
2477,1662885753.25,2022-09-11 09:42:33.250000
2478,1662885753.5,2022-09-11 09:42:33.500000
2479,1662885753.75,2022-09-11 09:42:33.750000
2480,1662885754.0,2022-09-11 09:42:34.000000
2481,1662885754.25,2022-09-11 09:42:34.250000
2482,1662885754.5,2022-09-11 09:42:34.500000
2483,1662885754.75,2022-09-11 09:42:34.750000
2484,1662885755.0,2022-09-11 09:42:35.000000
2485,1662885755.25,2022-09-11 09:42:35.250000
2486,1662885755.5,2022-09-11 09:42:35.500000
2487,1662885755.75,2022-09-11 09:42:35.750000
2488,1662885756.0,2022-09-11 09:42:36.000000
2489,1662885756.25,2022-09-11 09:42:36.250000
2490,1662885756.5,2022-09-11 09:42:36.500000
2491,1662885756.75,2022-09-11 09:42:36.750000
2492,1662885757.0,2022-09-11 09:42:37.000000
2493,1662885757.25,2022-09-11 09:42:37.250000
2494,1662885757.5,2022-09-11 09:42:37.500000
2495,1662885757.75,2022-09-11 09:42:37.750000
2496,1662885758.0,2022-09-11 09:42:38.000000
2497,1662885758.25,2022-09-11 09:42:38.250000
2498,1662885758.5,2022-09-11 09:42:38.500000
2499,1662885758.75,2022-09-11 09:42:38.750000
2500,1662885759.0,2022-09-11 09:42:39.000000
2501,1662885759.25,2022-09-11 09:42:39.250000
2502,1662885759.5,2022-09-11 09:42:39.500000
2503,1662885759.75,2022-09-11 09:42:39.750000
2504,1662885760.0,2022-09-11 09:42:40.000000
2505,1662885760.25,2022-09-11 09:42:40.250000
2506,1662885760.5,2022-09-11 09:42:40.500000
2507,1662885760.75,2022-09-11 09:42:40.750000
2508,1662885761.0,2022-09-11 09:42:41.000000
2509,1662885761.25,2022-09-11 09:42:41.250000
2510,1662885761.5,2022-09-11 09:42:41.500000
2511,1662885761.75,2022-09-11 09:42:41.750000
2512,1662885762.0,2022-09-11 09:42:42.000000
2513,1662885762.25,2022-09-11 09:42:42.250000
2514,1662885762.5,2022-09-11 09:42:42.500000
2515,1662885762.75,2022-09-11 09:42:42.750000
2516,1662885763.0,2022-09-11 09:42:43.000000
2517,1662885763.25,2022-09-11 09:42:43.250000
2518,1662885763.5,2022-09-11 09:42:43.500000
2519,1662885763.75,2022-09-11 09:42:43.750000
2520,1662885764.0,2022-09-11 09:42:44.000000
2521,1662885764.25,2022-09-11 09:42:44.250000
2522,1662885764.5,2022-09-11 09:42:44.500000
2523,1662885764.75,2022-09-11 09:42:44.750000
2524,1662885765.0,2022-09-11 09:42:45.000000
2525,1662885765.25,2022-09-11 09:42:45.250000
2526,1662885765.5,2022-09-11 09:42:45.500000
2527,1662885765.75,2022-09-11 09:42:45.750000
2528,1662885766.0,2022-09-11 09:42:46.000000
2529,1662885766.25,2022-09-11 09:42:46.250000
2530,1662885766.5,2022-09-11 09:42:46.500000
2531,1662885766.75,2022-09-11 09:42:46.750000
2532,1662885767.0,2022-09-11 09:42:47.000000
2533,1662885767.25,2022-09-11 09:42:47.250000
2534,1662885767.5,2022-09-11 09:42:47.500000
2535,1662885767.75,2022-09-11 09:42:47.750000
2536,1662885768.0,2022-09-11 09:42:48.000000
2537,1662885768.25,2022-09-11 09:42:48.250000
2538,1662885768.5,2022-09-11 09:42:48.500000
2539,1662885768.75,2022-09-11 09:42:48.750000
2540,1662885769.0,2022-09-11 09:42:49.000000
2541,1662885769.25,2022-09-11 09:42:49.250000
2542,1662885769.5,2022-09-11 09:42:49.500000
2543,1662885769.75,2022-09-11 09:42:49.750000
2544,1662885770.0,2022-09-11 09:42:50.000000
2545,1662885770.25,2022-09-11 09:42:50.250000
2546,1662885770.5,2022-09-11 09:42:50.500000
2547,1662885770.75,2022-09-11 09:42:50.750000
2548,1662885771.0,2022-09-11 09:42:51.000000
2549,1662885771.25,2022-09-11 09:42:51.250000
2550,1662885771.5,2022-09-11 09:42:51.500000
2551,1662885771.75,2022-09-11 09:42:51.750000
2552,1662885772.0,2022-09-11 09:42:52.000000
2553,1662885772.25,2022-09-11 09:42:52.250000
2554,1662885772.5,2022-09-11 09:42:52.500000
2555,1662885772.75,2022-09-11 09:42:52.750000
2556,1662885773.0,2022-09-11 09:42:53.000000
2557,1662885773.25,2022-09-11 09:42:53.250000
2558,1662885773.5,2022-09-11 09:42:53.500000
2559,1662885773.75,2022-09-11 09:42:53.750000
2560,1662885774.0,2022-09-11 09:42:54.000000
2561,1662885774.25,2022-09-11 09:42:54.250000
2562,1662885774.5,2022-09-11 09:42:54.500000
2563,1662885774.75,2022-09-11 09:42:54.750000
2564,1662885775.0,2022-09-11 09:42:55.000000
2565,1662885775.25,2022-09-11 09:42:55.250000
2566,1662885775.5,2022-09-11 09:42:55.500000
2567,1662885775.75,2022-09-11 09:42:55.750000
2568,1662885776.0,2022-09-11 09:42:56.000000
2569,1662885776.25,2022-09-11 09:42:56.250000
2570,1662885776.5,2022-09-11 09:42:56.500000
2571,1662885776.75,2022-09-11 09:42:56.750000
2572,1662885777.0,2022-09-11 09:42:57.000000
2573,1662885777.25,2022-09-11 09:42:57.250000
2574,1662885777.5,2022-09-11 09:42:57.500000
2575,1662885777.75,2022-09-11 09:42:57.750000
2576,1662885778.0,2022-09-11 09:42:58.000000
2577,1662885778.25,2022-09-11 09:42:58.250000
2578,1662885778.5,2022-09-11 09:42:58.500000
2579,1662885778.75,2022-09-11 09:42:58.750000
2580,1662885779.0,2022-09-11 09:42:59.000000
2582,1662885779.5,2022-09-11 09:42:59.500000
2583,1662885779.75,2022-09-11 09:42:59.750000
2584,1662885780.0,2022-09-11 09:43:00.000000
2585,1662885780.25,2022-09-11 09:43:00.250000
2586,1662885780.5,2022-09-11 09:43:00.500000
3047,1662885895.75,2022-09-11 09:44:55.750000
3048,1662885896.0,2022-09-11 09:44:56.000000
3049,1662885896.25,2022-09-11 09:44:56.250000
3050,1662885896.5,2022-09-11 09:44:56.500000
3051,1662885896.75,2022-09-11 09:44:56.750000
3052,1662885897.0,2022-09-11 09:44:57.000000
3053,1662885897.25,2022-09-11 09:44:57.250000
3054,1662885897.5,2022-09-11 09:44:57.500000
3055,1662885897.75,2022-09-11 09:44:57.750000
3056,1662885898.0,2022-09-11 09:44:58.000000
3057,1662885898.25,2022-09-11 09:44:58.250000
3058,1662885898.5,2022-09-11 09:44:58.500000
3059,1662885898.75,2022-09-11 09:44:58.750000
3060,1662885899.0,2022-09-11 09:44:59.000000
3061,1662885899.25,2022-09-11 09:44:59.250000
3062,1662885899.5,2022-09-11 09:44:59.500000
3063,1662885899.75,2022-09-11 09:44:59.750000
3064,1662885900.0,2022-09-11 09:45:00.000000
3065,1662885900.25,2022-09-11 09:45:00.250000
3066,1662885900.5,2022-09-11 09:45:00.500000
3067,1662885900.75,2022-09-11 09:45:00.750000
3068,1662885901.0,2022-09-11 09:45:01.000000
3069,1662885901.25,2022-09-11 09:45:01.250000
3070,1662885901.5,2022-09-11 09:45:01.500000
3071,1662885901.75,2022-09-11 09:45:01.750000
3072,1662885902.0,2022-09-11 09:45:02.000000
3073,1662885902.25,2022-09-11 09:45:02.250000
3074,1662885902.5,2022-09-11 09:45:02.500000
3075,1662885902.75,2022-09-11 09:45:02.750000
3076,1662885903.0,2022-09-11 09:45:03.000000
3077,1662885903.25,2022-09-11 09:45:03.250000
3078,1662885903.5,2022-09-11 09:45:03.500000
3079,1662885903.75,2022-09-11 09:45:03.750000
3080,1662885904.0,2022-09-11 09:45:04.000000
3081,1662885904.25,2022-09-11 09:45:04.250000
3082,1662885904.5,2022-09-11 09:45:04.500000
3083,1662885904.75,2022-09-11 09:45:04.750000
3084,1662885905.0,2022-09-11 09:45:05.000000
3085,1662885905.25,2022-09-11 09:45:05.250000
3086,1662885905.5,2022-09-11 09:45:05.500000
3087,1662885905.75,2022-09-11 09:45:05.750000
3088,1662885906.0,2022-09-11 09:45:06.000000
3089,1662885906.25,2022-09-11 09:45:06.250000
3090,1662885906.5,2022-09-11 09:45:06.500000
3091,1662885906.75,2022-09-11 09:45:06.750000
3092,1662885907.0,2022-09-11 09:45:07.000000
3093,1662885907.25,2022-09-11 09:45:07.250000
3094,1662885907.5,2022-09-11 09:45:07.500000
3095,1662885907.75,2022-09-11 09:45:07.750000
3096,1662885908.0,2022-09-11 09:45:08.000000
3097,1662885908.25,2022-09-11 09:45:08.250000
3098,1662885908.5,2022-09-11 09:45:08.500000
3099,1662885908.75,2022-09-11 09:45:08.750000
3100,1662885909.0,2022-09-11 09:45:09.000000
3101,1662885909.25,2022-09-11 09:45:09.250000
3102,1662885909.5,2022-09-11 09:45:09.500000
3103,1662885909.75,2022-09-11 09:45:09.750000
3104,1662885910.0,2022-09-11 09:45:10.000000
3105,1662885910.25,2022-09-11 09:45:10.250000
3106,1662885910.5,2022-09-11 09:45:10.500000
3107,1662885910.75,2022-09-11 09:45:10.750000
3108,1662885911.0,2022-09-11 09:45:11.000000
3109,1662885911.25,2022-09-11 09:45:11.250000
3110,1662885911.5,2022-09-11 09:45:11.500000
3111,1662885911.75,2022-09-11 09:45:11.750000
3112,1662885912.0,2022-09-11 09:45:12.000000
3113,1662885912.25,2022-09-11 09:45:12.250000
3114,1662885912.5,2022-09-11 09:45:12.500000
3115,1662885912.75,2022-09-11 09:45:12.750000
3116,1662885913.0,2022-09-11 09:45:13.000000
3117,1662885913.25,2022-09-11 09:45:13.250000
3118,1662885913.5,2022-09-11 09:45:13.500000
3119,1662885913.75,2022-09-11 09:45:13.750000
3120,1662885914.0,2022-09-11 09:45:14.000000
3121,1662885914.25,2022-09-11 09:45:14.250000
3122,1662885914.5,2022-09-11 09:45:14.500000
3123,1662885914.75,2022-09-11 09:45:14.750000
3124,1662885915.0,2022-09-11 09:45:15.000000
3125,1662885915.25,2022-09-11 09:45:15.250000
3126,1662885915.5,2022-09-11 09:45:15.500000
3127,1662885915.75,2022-09-11 09:45:15.750000
3128,1662885916.0,2022-09-11 09:45:16.000000
3129,1662885916.25,2022-09-11 09:45:16.250000
3130,1662885916.5,2022-09-11 09:45:16.500000
3131,1662885916.75,2022-09-11 09:45:16.750000
3132,1662885917.0,2022-09-11 09:45:17.000000
3133,1662885917.25,2022-09-11 09:45:17.250000
3134,1662885917.5,2022-09-11 09:45:17.500000
3135,1662885917.75,2022-09-11 09:45:17.750000
3136,1662885918.0,2022-09-11 09:45:18.000000
3137,1662885918.25,2022-09-11 09:45:18.250000
3138,1662885918.5,2022-09-11 09:45:18.500000
3139,1662885918.75,2022-09-11 09:45:18.750000
3140,1662885919.0,2022-09-11 09:45:19.000000
3141,1662885919.25,2022-09-11 09:45:19.250000
3142,1662885919.5,2022-09-11 09:45:19.500000
3143,1662885919.75,2022-09-11 09:45:19.750000
3144,1662885920.0,2022-09-11 09:45:20.000000
3145,1662885920.25,2022-09-11 09:45:20.250000
3146,1662885920.5,2022-09-11 09:45:20.500000
3147,1662885920.75,2022-09-11 09:45:20.750000
3148,1662885921.0,2022-09-11 09:45:21.000000
3149,1662885921.25,2022-09-11 09:45:21.250000
3150,1662885921.5,2022-09-11 09:45:21.500000
3151,1662885921.75,2022-09-11 09:45:21.750000
3152,1662885922.0,2022-09-11 09:45:22.000000
3153,1662885922.25,2022-09-11 09:45:22.250000
3154,1662885922.5,2022-09-11 09:45:22.500000
3155,1662885922.75,2022-09-11 09:45:22.750000
3156,1662885923.0,2022-09-11 09:45:23.000000
3157,1662885923.25,2022-09-11 09:45:23.250000
3158,1662885923.5,2022-09-11 09:45:23.500000
3159,1662885923.75,2022-09-11 09:45:23.750000
3160,1662885924.0,2022-09-11 09:45:24.000000
3161,1662885924.25,2022-09-11 09:45:24.250000
3162,1662885924.5,2022-09-11 09:45:24.500000
3163,1662885924.75,2022-09-11 09:45:24.750000
3164,1662885925.0,2022-09-11 09:45:25.000000
3165,1662885925.25,2022-09-11 09:45:25.250000
3166,1662885925.5,2022-09-11 09:45:25.500000
3167,1662885925.75,2022-09-11 09:45:25.750000
3168,1662885926.0,2022-09-11 09:45:26.000000
3169,1662885926.25,2022-09-11 09:45:26.250000
3170,1662885926.5,2022-09-11 09:45:26.500000
3171,1662885926.75,2022-09-11 09:45:26.750000
3172,1662885927.0,2022-09-11 09:45:27.000000
3173,1662885927.25,2022-09-11 09:45:27.250000
3174,1662885927.5,2022-09-11 09:45:27.500000
3175,1662885927.75,2022-09-11 09:45:27.750000
3176,1662885928.0,2022-09-11 09:45:28.000000
3177,1662885928.25,2022-09-11 09:45:28.250000
3178,1662885928.5,2022-09-11 09:45:28.500000
3179,1662885928.75,2022-09-11 09:45:28.750000
3180,1662885929.0,2022-09-11 09:45:29.000000
3181,1662885929.25,2022-09-11 09:45:29.250000
3182,1662885929.5,2022-09-11 09:45:29.500000
3183,1662885929.75,2022-09-11 09:45:29.750000
3184,1662885930.0,2022-09-11 09:45:30.000000
3185,1662885930.25,2022-09-11 09:45:30.250000
3186,1662885930.5,2022-09-11 09:45:30.500000
3187,1662885930.75,2022-09-11 09:45:30.750000
3188,1662885931.0,2022-09-11 09:45:31.000000
3189,1662885931.25,2022-09-11 09:45:31.250000
3190,1662885931.5,2022-09-11 09:45:31.500000
3191,1662885931.75,2022-09-11 09:45:31.750000
3192,1662885932.0,2022-09-11 09:45:32.000000
3193,1662885932.25,2022-09-11 09:45:32.250000
3194,1662885932.5,2022-09-11 09:45:32.500000
3195,1662885932.75,2022-09-11 09:45:32.750000
3196,1662885933.0,2022-09-11 09:45:33.000000
3197,1662885933.25,2022-09-11 09:45:33.250000
3198,1662885933.5,2022-09-11 09:45:33.500000
3199,1662885933.75,2022-09-11 09:45:33.750000
3200,1662885934.0,2022-09-11 09:45:34.000000
3201,1662885934.25,2022-09-11 09:45:34.250000
3202,1662885934.5,2022-09-11 09:45:34.500000
3203,1662885934.75,2022-09-11 09:45:34.750000
3204,1662885935.0,2022-09-11 09:45:35.000000
3205,1662885935.25,2022-09-11 09:45:35.250000
3206,1662885935.5,2022-09-11 09:45:35.500000
3207,1662885935.75,2022-09-11 09:45:35.750000
3208,1662885936.0,2022-09-11 09:45:36.000000
3209,1662885936.25,2022-09-11 09:45:36.250000
3210,1662885936.5,2022-09-11 09:45:36.500000
3211,1662885936.75,2022-09-11 09:45:36.750000
3212,1662885937.0,2022-09-11 09:45:37.000000
3213,1662885937.25,2022-09-11 09:45:37.250000
3214,1662885937.5,2022-09-11 09:45:37.500000
3215,1662885937.75,2022-09-11 09:45:37.750000
3216,1662885938.0,2022-09-11 09:45:38.000000
3217,1662885938.25,2022-09-11 09:45:38.250000
3218,1662885938.5,2022-09-11 09:45:38.500000
3219,1662885938.75,2022-09-11 09:45:38.750000
3220,1662885939.0,2022-09-11 09:45:39.000000
3221,1662885939.25,2022-09-11 09:45:39.250000
3222,1662885939.5,2022-09-11 09:45:39.500000
3223,1662885939.75,2022-09-11 09:45:39.750000
3224,1662885940.0,2022-09-11 09:45:40.000000
3225,1662885940.25,2022-09-11 09:45:40.250000
3226,1662885940.5,2022-09-11 09:45:40.500000
3227,1662885940.75,2022-09-11 09:45:40.750000
3228,1662885941.0,2022-09-11 09:45:41.000000
3229,1662885941.25,2022-09-11 09:45:41.250000
3230,1662885941.5,2022-09-11 09:45:41.500000
3231,1662885941.75,2022-09-11 09:45:41.750000
3232,1662885942.0,2022-09-11 09:45:42.000000
3233,1662885942.25,2022-09-11 09:45:42.250000
3234,1662885942.5,2022-09-11 09:45:42.500000
3235,1662885942.75,2022-09-11 09:45:42.750000
3236,1662885943.0,2022-09-11 09:45:43.000000
3237,1662885943.25,2022-09-11 09:45:43.250000
3238,1662885943.5,2022-09-11 09:45:43.500000
3239,1662885943.75,2022-09-11 09:45:43.750000
3240,1662885944.0,2022-09-11 09:45:44.000000
3241,1662885944.25,2022-09-11 09:45:44.250000
3242,1662885944.5,2022-09-11 09:45:44.500000
3243,1662885944.75,2022-09-11 09:45:44.750000
3244,1662885945.0,2022-09-11 09:45:45.000000
3245,1662885945.25,2022-09-11 09:45:45.250000
3246,1662885945.5,2022-09-11 09:45:45.500000
3247,1662885945.75,2022-09-11 09:45:45.750000
3248,1662885946.0,2022-09-11 09:45:46.000000
3249,1662885946.25,2022-09-11 09:45:46.250000
3250,1662885946.5,2022-09-11 09:45:46.500000
3251,1662885946.75,2022-09-11 09:45:46.750000
3252,1662885947.0,2022-09-11 09:45:47.000000
3253,1662885947.25,2022-09-11 09:45:47.250000
3254,1662885947.5,2022-09-11 09:45:47.500000
3255,1662885947.75,2022-09-11 09:45:47.750000
3256,1662885948.0,2022-09-11 09:45:48.000000
3257,1662885948.25,2022-09-11 09:45:48.250000
3258,1662885948.5,2022-09-11 09:45:48.500000
3259,1662885948.75,2022-09-11 09:45:48.750000
3260,1662885949.0,2022-09-11 09:45:49.000000
3261,1662885949.25,2022-09-11 09:45:49.250000
3262,1662885949.5,2022-09-11 09:45:49.500000
3263,1662885949.75,2022-09-11 09:45:49.750000
3264,1662885950.0,2022-09-11 09:45:50.000000
3265,1662885950.25,2022-09-11 09:45:50.250000
3266,1662885950.5,2022-09-11 09:45:50.500000
3267,1662885950.75,2022-09-11 09:45:50.750000
3268,1662885951.0,2022-09-11 09:45:51.000000
3269,1662885951.25,2022-09-11 09:45:51.250000
3270,1662885951.5,2022-09-11 09:45:51.500000
3271,1662885951.75,2022-09-11 09:45:51.750000
3272,1662885952.0,2022-09-11 09:45:52.000000
3273,1662885952.25,2022-09-11 09:45:52.250000
3274,1662885952.5,2022-09-11 09:45:52.500000
3275,1662885952.75,2022-09-11 09:45:52.750000
3276,1662885953.0,2022-09-11 09:45:53.000000
3277,1662885953.25,2022-09-11 09:45:53.250000
3278,1662885953.5,2022-09-11 09:45:53.500000
3279,1662885953.75,2022-09-11 09:45:53.750000
3280,1662885954.0,2022-09-11 09:45:54.000000
3281,1662885954.25,2022-09-11 09:45:54.250000
3282,1662885954.5,2022-09-11 09:45:54.500000
3283,1662885954.75,2022-09-11 09:45:54.750000
3284,1662885955.0,2022-09-11 09:45:55.000000
3285,1662885955.25,2022-09-11 09:45:55.250000
3286,1662885955.5,2022-09-11 09:45:55.500000
3289,1662885956.25,2022-09-11 09:45:56.250000
3302,1662885959.5,2022-09-11 09:45:59.500000
3303,1662885959.75,2022-09-11 09:45:59.750000
3304,1662885960.0,2022-09-11 09:46:00.000000
3305,1662885960.25,2022-09-11 09:46:00.250000
3306,1662885960.5,2022-09-11 09:46:00.500000
3307,1662885960.75,2022-09-11 09:46:00.750000
3308,1662885961.0,2022-09-11 09:46:01.000000
3309,1662885961.25,2022-09-11 09:46:01.250000
3310,1662885961.5,2022-09-11 09:46:01.500000
3311,1662885961.75,2022-09-11 09:46:01.750000
3312,1662885962.0,2022-09-11 09:46:02.000000
3313,1662885962.25,2022-09-11 09:46:02.250000
3314,1662885962.5,2022-09-11 09:46:02.500000
3315,1662885962.75,2022-09-11 09:46:02.750000
3316,1662885963.0,2022-09-11 09:46:03.000000
3317,1662885963.25,2022-09-11 09:46:03.250000
3318,1662885963.5,2022-09-11 09:46:03.500000
3319,1662885963.75,2022-09-11 09:46:03.750000
3320,1662885964.0,2022-09-11 09:46:04.000000
3321,1662885964.25,2022-09-11 09:46:04.250000
3322,1662885964.5,2022-09-11 09:46:04.500000
3323,1662885964.75,2022-09-11 09:46:04.750000
3324,1662885965.0,2022-09-11 09:46:05.000000
3325,1662885965.25,2022-09-11 09:46:05.250000
3326,1662885965.5,2022-09-11 09:46:05.500000
3327,1662885965.75,2022-09-11 09:46:05.750000
3328,1662885966.0,2022-09-11 09:46:06.000000
3329,1662885966.25,2022-09-11 09:46:06.250000
3330,1662885966.5,2022-09-11 09:46:06.500000
3331,1662885966.75,2022-09-11 09:46:06.750000
3332,1662885967.0,2022-09-11 09:46:07.000000
3333,1662885967.25,2022-09-11 09:46:07.250000
3334,1662885967.5,2022-09-11 09:46:07.500000
3335,1662885967.75,2022-09-11 09:46:07.750000
3336,1662885968.0,2022-09-11 09:46:08.000000
3337,1662885968.25,2022-09-11 09:46:08.250000
3338,1662885968.5,2022-09-11 09:46:08.500000
3339,1662885968.75,2022-09-11 09:46:08.750000
3340,1662885969.0,2022-09-11 09:46:09.000000
3341,1662885969.25,2022-09-11 09:46:09.250000
3342,1662885969.5,2022-09-11 09:46:09.500000
3343,1662885969.75,2022-09-11 09:46:09.750000
3344,1662885970.0,2022-09-11 09:46:10.000000
3345,1662885970.25,2022-09-11 09:46:10.250000
3346,1662885970.5,2022-09-11 09:46:10.500000
3347,1662885970.75,2022-09-11 09:46:10.750000
3348,1662885971.0,2022-09-11 09:46:11.000000
3349,1662885971.25,2022-09-11 09:46:11.250000
3350,1662885971.5,2022-09-11 09:46:11.500000
3351,1662885971.75,2022-09-11 09:46:11.750000
3352,1662885972.0,2022-09-11 09:46:12.000000
3353,1662885972.25,2022-09-11 09:46:12.250000
3354,1662885972.5,2022-09-11 09:46:12.500000
3355,1662885972.75,2022-09-11 09:46:12.750000
3356,1662885973.0,2022-09-11 09:46:13.000000
3357,1662885973.25,2022-09-11 09:46:13.250000
3358,1662885973.5,2022-09-11 09:46:13.500000
3359,1662885973.75,2022-09-11 09:46:13.750000
3360,1662885974.0,2022-09-11 09:46:14.000000
3361,1662885974.25,2022-09-11 09:46:14.250000
3362,1662885974.5,2022-09-11 09:46:14.500000
3363,1662885974.75,2022-09-11 09:46:14.750000
3364,1662885975.0,2022-09-11 09:46:15.000000
3365,1662885975.25,2022-09-11 09:46:15.250000
3366,1662885975.5,2022-09-11 09:46:15.500000
3367,1662885975.75,2022-09-11 09:46:15.750000
3368,1662885976.0,2022-09-11 09:46:16.000000
3369,1662885976.25,2022-09-11 09:46:16.250000
3370,1662885976.5,2022-09-11 09:46:16.500000
3371,1662885976.75,2022-09-11 09:46:16.750000
3372,1662885977.0,2022-09-11 09:46:17.000000
3373,1662885977.25,2022-09-11 09:46:17.250000
3374,1662885977.5,2022-09-11 09:46:17.500000
3375,1662885977.75,2022-09-11 09:46:17.750000
3376,1662885978.0,2022-09-11 09:46:18.000000
3377,1662885978.25,2022-09-11 09:46:18.250000
3378,1662885978.5,2022-09-11 09:46:18.500000
3379,1662885978.75,2022-09-11 09:46:18.750000
3380,1662885979.0,2022-09-11 09:46:19.000000
3381,1662885979.25,2022-09-11 09:46:19.250000
3382,1662885979.5,2022-09-11 09:46:19.500000
3383,1662885979.75,2022-09-11 09:46:19.750000
3384,1662885980.0,2022-09-11 09:46:20.000000
3385,1662885980.25,2022-09-11 09:46:20.250000
3386,1662885980.5,2022-09-11 09:46:20.500000
3387,1662885980.75,2022-09-11 09:46:20.750000
3388,1662885981.0,2022-09-11 09:46:21.000000
3389,1662885981.25,2022-09-11 09:46:21.250000
3390,1662885981.5,2022-09-11 09:46:21.500000
3391,1662885981.75,2022-09-11 09:46:21.750000
3392,1662885982.0,2022-09-11 09:46:22.000000
3393,1662885982.25,2022-09-11 09:46:22.250000
3394,1662885982.5,2022-09-11 09:46:22.500000
3395,1662885982.75,2022-09-11 09:46:22.750000
3396,1662885983.0,2022-09-11 09:46:23.000000
3397,1662885983.25,2022-09-11 09:46:23.250000
3398,1662885983.5,2022-09-11 09:46:23.500000
3399,1662885983.75,2022-09-11 09:46:23.750000
3400,1662885984.0,2022-09-11 09:46:24.000000
3401,1662885984.25,2022-09-11 09:46:24.250000
3402,1662885984.5,2022-09-11 09:46:24.500000
3403,1662885984.75,2022-09-11 09:46:24.750000
3404,1662885985.0,2022-09-11 09:46:25.000000
3405,1662885985.25,2022-09-11 09:46:25.250000
3406,1662885985.5,2022-09-11 09:46:25.500000
3407,1662885985.75,2022-09-11 09:46:25.750000
3408,1662885986.0,2022-09-11 09:46:26.000000
3409,1662885986.25,2022-09-11 09:46:26.250000
3410,1662885986.5,2022-09-11 09:46:26.500000
3411,1662885986.75,2022-09-11 09:46:26.750000
3412,1662885987.0,2022-09-11 09:46:27.000000
3413,1662885987.25,2022-09-11 09:46:27.250000
3414,1662885987.5,2022-09-11 09:46:27.500000
3415,1662885987.75,2022-09-11 09:46:27.750000
3416,1662885988.0,2022-09-11 09:46:28.000000
3417,1662885988.25,2022-09-11 09:46:28.250000
3418,1662885988.5,2022-09-11 09:46:28.500000
3419,1662885988.75,2022-09-11 09:46:28.750000
3420,1662885989.0,2022-09-11 09:46:29.000000
3421,1662885989.25,2022-09-11 09:46:29.250000
3422,1662885989.5,2022-09-11 09:46:29.500000
3423,1662885989.75,2022-09-11 09:46:29.750000
3424,1662885990.0,2022-09-11 09:46:30.000000
3425,1662885990.25,2022-09-11 09:46:30.250000
3426,1662885990.5,2022-09-11 09:46:30.500000
3427,1662885990.75,2022-09-11 09:46:30.750000
3428,1662885991.0,2022-09-11 09:46:31.000000
3429,1662885991.25,2022-09-11 09:46:31.250000
3430,1662885991.5,2022-09-11 09:46:31.500000
3431,1662885991.75,2022-09-11 09:46:31.750000
3432,1662885992.0,2022-09-11 09:46:32.000000
3433,1662885992.25,2022-09-11 09:46:32.250000
3434,1662885992.5,2022-09-11 09:46:32.500000
3435,1662885992.75,2022-09-11 09:46:32.750000
3436,1662885993.0,2022-09-11 09:46:33.000000
3437,1662885993.25,2022-09-11 09:46:33.250000
3438,1662885993.5,2022-09-11 09:46:33.500000
3439,1662885993.75,2022-09-11 09:46:33.750000
3440,1662885994.0,2022-09-11 09:46:34.000000
3441,1662885994.25,2022-09-11 09:46:34.250000
3442,1662885994.5,2022-09-11 09:46:34.500000
3443,1662885994.75,2022-09-11 09:46:34.750000
3444,1662885995.0,2022-09-11 09:46:35.000000
3445,1662885995.25,2022-09-11 09:46:35.250000
3446,1662885995.5,2022-09-11 09:46:35.500000
3447,1662885995.75,2022-09-11 09:46:35.750000
3448,1662885996.0,2022-09-11 09:46:36.000000
3449,1662885996.25,2022-09-11 09:46:36.250000
3450,1662885996.5,2022-09-11 09:46:36.500000
3451,1662885996.75,2022-09-11 09:46:36.750000
3452,1662885997.0,2022-09-11 09:46:37.000000
3453,1662885997.25,2022-09-11 09:46:37.250000
